Pd-110(n,tot) ENDFB-8.0
Energy(eV) XS(b)
1.00000E-05 335.012
1.03125E-05 329.907
1.06250E-05 325.029
1.09375E-05 320.362
1.12500E-05 315.891
1.15625E-05 311.603
1.18750E-05 307.485
1.21875E-05 303.527
1.25000E-05 299.718
1.28125E-05 296.050
1.31250E-05 292.513
1.34375E-05 289.101
1.37500E-05 285.806
1.43750E-05 279.541
1.50000E-05 273.673
1.54624E-05 269.562
1.59248E-05 265.632
1.63871E-05 261.870
1.68495E-05 258.264
1.68750E-05 258.069
1.69531E-05 257.476
1.70313E-05 256.887
1.71875E-05 255.720
1.75000E-05 253.435
1.81250E-05 249.042
1.87500E-05 244.872
1.93750E-05 240.905
2.00000E-05 237.125
2.06427E-05 233.419
2.12854E-05 229.883
2.19281E-05 226.504
2.25709E-05 223.270
2.32136E-05 220.171
2.38563E-05 217.199
2.44990E-05 214.345
2.51417E-05 211.601
2.63209E-05 206.831
2.75000E-05 202.371
2.84375E-05 199.026
2.93750E-05 195.842
3.03125E-05 192.808
3.12500E-05 189.911
3.21875E-05 187.142
3.31250E-05 184.492
3.40625E-05 181.952
3.50000E-05 179.515
3.62500E-05 176.414
3.75000E-05 173.471
3.87500E-05 170.670
4.00000E-05 168.003
4.12500E-05 165.458
4.25000E-05 163.027
4.43750E-05 159.574
4.62500E-05 156.335
4.81250E-05 153.287
5.00000E-05 150.412
5.22464E-05 147.175
5.44928E-05 144.141
5.67392E-05 141.289
5.89856E-05 138.603
6.07428E-05 136.606
6.25000E-05 134.695
6.40625E-05 133.062
6.56250E-05 131.488
6.71875E-05 129.969
6.87500E-05 128.503
7.18750E-05 125.715
7.50000E-05 123.105
7.75000E-05 121.132
8.00000E-05 119.252
8.37500E-05 116.593
8.75000E-05 114.107
9.06250E-05 112.155
9.37500E-05 110.302
9.68750E-05 108.540
0.000100000 106.861
0.000104493 104.582
0.000108986 102.446
0.000113478 100.439
0.000117971 98.5484
0.000121486 97.1435
0.000125000 95.7987
0.000128125 94.6500
0.000131250 93.5427
0.000134375 92.4746
0.000137500 91.4434
0.000143750 89.4834
0.000150000 87.6480
0.000155000 86.2609
0.000160000 84.9399
0.000167500 83.0711
0.000175000 81.3247
0.000181250 79.9536
0.000187500 78.6521
0.000193750 77.4147
0.000200000 76.2362
0.000206827 75.0109
0.000213655 73.8453
0.000220482 72.7348
0.000227310 71.6751
0.000234137 70.6625
0.000240964 69.6937
0.000247792 68.7655
0.000254619 67.8753
0.000264810 66.6118
0.000275000 65.4199
0.000284358 64.3828
0.000293716 63.3962
0.000294922 63.2725
0.000298057 62.9545
0.000301192 62.6416
0.000307461 62.0303
0.000320000 60.8627
0.000335000 59.5538
0.000350000 58.3308
0.000359375 57.6061
0.000368750 56.9095
0.000378125 56.2393
0.000387500 55.5937
0.000396875 54.9715
0.000406250 54.3711
0.000425000 53.2312
0.000443750 52.1652
0.000462500 51.1654
0.000481250 50.2252
0.000500000 49.3390
0.000515625 48.6382
0.000531250 47.9689
0.000546875 47.3288
0.000562500 46.7159
0.000578125 46.1283
0.000593750 45.5643
0.000609375 45.0224
0.000625000 44.5011
0.000640000 44.0190
0.000667500 43.1782
0.000695000 42.3884
0.000722500 41.6446
0.000750000 40.9425
0.000781250 40.1907
0.000812500 39.4831
0.000843750 38.8157
0.000875000 38.1847
0.000906250 37.5870
0.000937500 37.0198
0.000968750 36.4805
0.00100000 35.9670
0.00103125 35.4772
0.00106250 35.0094
0.00109375 34.5621
0.00112500 34.1336
0.00115625 33.7229
0.00118750 33.3286
0.00121875 32.9497
0.00125000 32.5853
0.00128000 32.2482
0.00133500 31.6602
0.00139000 31.1079
0.00144500 30.5876
0.00150000 30.0965
0.00156250 29.5704
0.00162500 29.0753
0.00168750 28.6082
0.00175000 28.1665
0.00181250 27.7481
0.00187500 27.3509
0.00193750 26.9733
0.00200000 26.6137
0.00207000 26.2305
0.00214000 25.8664
0.00221000 25.5199
0.00228000 25.1896
0.00235000 24.8743
0.00242000 24.5729
0.00249000 24.2843
0.00256000 24.0078
0.00256250 23.9981
0.00256836 23.9755
0.00257422 23.9530
0.00258594 23.9082
0.00260938 23.8195
0.00265625 23.6456
0.00275000 23.3115
0.00284375 22.9941
0.00293750 22.6921
0.00303125 22.4043
0.00312500 22.1297
0.00321875 21.8672
0.00331250 21.6160
0.00340625 21.3753
0.00350000 21.1444
0.00359375 20.9227
0.00368750 20.7095
0.00378125 20.5044
0.00387500 20.3067
0.00396875 20.1162
0.00406250 19.9323
0.00425000 19.5831
0.00443750 19.2564
0.00462500 18.9498
0.00481250 18.6615
0.00500000 18.3896
0.00512000 18.2235
0.00526125 18.0354
0.00540250 17.8547
0.00554375 17.6810
0.00568500 17.5138
0.00582625 17.3528
0.00596750 17.1976
0.00610875 17.0478
0.00625000 16.9032
0.00640625 16.7488
0.00656250 16.6000
0.00671875 16.4564
0.00687500 16.3177
0.00718750 16.0542
0.00750000 15.8074
0.00781250 15.5756
0.00812500 15.3574
0.00843750 15.1514
0.00875000 14.9567
0.00906250 14.7721
0.00937500 14.5969
0.00968750 14.4302
0.0100000 14.2715
0.0103125 14.1200
0.0106250 13.9753
0.0109375 13.8369
0.0112500 13.7043
0.0115625 13.5771
0.0118750 13.4550
0.0121875 13.3376
0.0125000 13.2247
0.0128125 13.1160
0.0131250 13.0111
0.0134375 12.9100
0.0137500 12.8123
0.0143750 12.6267
0.0150000 12.4527
0.0156250 12.2894
0.0162500 12.1356
0.0168750 11.9905
0.0175000 11.8532
0.0181250 11.7231
0.0187500 11.5996
0.0193750 11.4821
0.0200000 11.3702
0.0206625 11.2571
0.0213250 11.1494
0.0219875 11.0466
0.0226500 10.9484
0.0233125 10.8544
0.0239750 10.7643
0.0246375 10.6779
0.0253000 10.5949
0.0261130 10.4974
0.0269260 10.4043
0.0277391 10.3154
0.0285521 10.2304
0.0293651 10.1489
0.0301781 10.0707
0.0309911 9.99561
0.0318042 9.92344
0.0331138 9.81283
0.0344234 9.70860
0.0357331 9.61017
0.0370427 9.51700
0.0383524 9.42865
0.0396620 9.34472
0.0409716 9.26485
0.0422813 9.18873
0.0442109 9.08281
0.0461406 8.98361
0.0480703 8.89045
0.0500000 8.80275
0.0506000 8.77651
0.0527938 8.68441
0.0549875 8.59788
0.0571813 8.51639
0.0593750 8.43947
0.0595257 8.43434
0.0598975 8.42178
0.0602693 8.40933
0.0610129 8.38477
0.0625000 8.33699
0.0640625 8.28860
0.0656250 8.24195
0.0671875 8.19694
0.0687500 8.15347
0.0718750 8.07080
0.0750000 7.99335
0.0781250 7.92059
0.0812500 7.85207
0.0843750 7.78742
0.0875000 7.72629
0.0906250 7.66835
0.0937500 7.61333
0.0968750 7.56100
0.100000 7.51114
0.104688 7.44058
0.109375 7.37461
0.114063 7.31275
0.118750 7.25460
0.119051 7.25098
0.119795 7.24211
0.120539 7.23332
0.122026 7.21598
0.125000 7.18225
0.128125 7.14809
0.131250 7.11517
0.134375 7.08341
0.137500 7.05273
0.143750 6.99440
0.150000 6.93972
0.156250 6.88836
0.162500 6.84002
0.168750 6.79442
0.175000 6.75131
0.181250 6.71046
0.187500 6.67168
0.193750 6.63480
0.200000 6.59968
0.209375 6.55001
0.218750 6.50357
0.228125 6.46002
0.237500 6.41908
0.238103 6.41653
0.240409 6.40687
0.242715 6.39735
0.247327 6.37872
0.256551 6.34301
0.265776 6.30921
0.275000 6.27717
0.284375 6.24624
0.293750 6.21684
0.303125 6.18882
0.312500 6.16207
0.321875 6.13651
0.331250 6.11207
0.340625 6.08867
0.350000 6.06625
0.359375 6.04474
0.368750 6.02408
0.378125 6.00424
0.387500 5.98515
0.396875 5.96675
0.406250 5.94900
0.425000 5.91535
0.443750 5.88395
0.462500 5.85457
0.500000 5.80118
0.531250 5.76134
0.562500 5.72517
0.593750 5.69201
0.625000 5.66161
0.687500 5.60800
0.750000 5.56218
0.812500 5.52272
0.875000 5.48856
0.937500 5.45883
1.00000 5.43294
1.06250 5.41032
1.12500 5.39070
1.18750 5.37356
1.25000 5.35877
1.36810 5.33662
1.48621 5.32105
1.50000 5.31962
1.53125 5.31668
1.64063 5.30947
1.75000 5.30688
1.82741 5.30766
1.90482 5.31068
2.00000 5.31727
2.09375 5.32698
2.18750 5.34010
2.28125 5.35676
2.37500 5.37686
2.46875 5.40106
2.56250 5.42950
2.65625 5.46259
2.72827 5.49153
2.75000 5.50088
2.79688 5.52219
2.84375 5.54520
2.93750 5.59587
2.97241 5.61653
3.03836 5.65875
3.10431 5.70507
3.17026 5.75599
3.23621 5.81234
3.30216 5.87440
3.36810 5.94276
3.43405 6.01861
3.50000 6.10283
3.57031 6.20327
3.64063 6.31513
3.71094 6.44172
3.78125 6.58483
3.81641 6.66335
3.85156 6.74694
3.88672 6.83604
3.92188 6.93135
3.95703 7.03349
3.99219 7.14298
4.02734 7.26042
4.06250 7.38660
4.07093 7.41830
4.09332 7.50529
4.11570 7.59669
4.16047 7.79359
4.20523 8.01105
4.25000 8.25192
4.28809 8.47813
4.32617 8.72681
4.36426 9.00089
4.40234 9.30377
4.44043 9.63952
4.47852 10.0132
4.51660 10.4308
4.53565 10.6581
4.55469 10.8992
4.58229 11.2753
4.60989 11.6862
4.63749 12.1367
4.66508 12.6318
4.69268 13.1778
4.72028 13.7819
4.74788 14.4526
4.77548 15.2002
4.79915 15.9115
4.82282 16.6973
4.84649 17.5677
4.87016 18.5355
4.89383 19.6157
4.90567 20.2036
4.91750 20.8269
4.92934 21.4886
4.94117 22.1918
4.95301 22.9401
4.96484 23.7376
4.98242 25.0222
5.00000 26.4412
5.00960 27.2794
5.01919 28.1669
5.03238 29.4752
5.04557 30.8963
5.05877 32.4435
5.07196 34.1323
5.08515 35.9810
5.09834 38.0103
5.11153 40.2448
5.12472 42.7131
5.13843 45.5632
5.14529 47.1108
5.15214 48.7486
5.15900 50.4840
5.16585 52.3249
5.17271 54.2800
5.17956 56.3590
5.18642 58.5732
5.19327 60.9344
5.20013 63.4562
5.20698 66.1534
5.21384 69.0435
5.22069 72.1453
5.22755 75.4804
5.23440 79.0725
5.24395 84.5571
5.24872 87.5335
5.25349 90.6816
5.25826 94.0162
5.26304 97.5511
5.26781 101.304
5.27258 105.292
5.27735 109.536
5.28213 114.058
5.28690 118.882
5.29167 124.034
5.29644 129.546
5.30122 135.447
5.30599 141.778
5.31076 148.573
5.31597 156.572
5.32117 165.238
5.32638 174.641
5.33159 184.857
5.33809 198.894
5.34135 206.490
5.34460 214.502
5.34786 222.954
5.35111 231.871
5.35436 241.278
5.35762 251.204
5.36087 261.674
5.36413 272.717
5.36738 284.361
5.37063 296.634
5.37389 309.563
5.37714 323.176
5.38040 337.500
5.38365 352.555
5.38842 376.027
5.39319 401.195
5.39797 428.127
5.40274 456.850
5.40751 487.399
5.41228 519.757
5.41706 553.912
5.42183 589.790
5.42655 626.905
5.43127 665.500
5.43600 705.416
5.44072 746.444
5.44544 788.363
5.45016 830.888
5.45488 873.706
5.45960 916.460
5.46897 999.569
5.47833 1077.74
5.48301 1113.92
5.48769 1147.60
5.49237 1178.37
5.49705 1205.83
5.50411 1240.28
5.51118 1265.40
5.51471 1274.22
5.51824 1280.44
5.52177 1284.01
5.52530 1284.92
5.52972 1282.29
5.53413 1275.52
5.53854 1264.69
5.54296 1249.95
5.54835 1226.89
5.55375 1198.67
5.55914 1165.78
5.56454 1128.81
5.56993 1088.34
5.57533 1045.00
5.58072 999.453
5.58612 952.331
5.59205 899.408
5.59798 846.084
5.60985 740.954
5.61578 690.282
5.62171 641.484
5.62765 594.899
5.63358 550.784
5.63951 509.291
5.64544 470.520
5.65138 434.497
5.65731 401.200
5.66324 370.544
5.66917 342.433
5.67511 316.725
5.68104 293.281
5.68697 271.934
5.69290 252.524
5.69884 234.890
5.70477 218.878
5.71070 204.331
5.71663 191.114
5.72257 179.091
5.72850 168.145
5.73281 160.796
5.73713 153.918
5.74144 147.476
5.74576 141.438
5.75169 133.736
5.75762 126.665
5.76356 120.161
5.76949 114.168
5.77542 108.634
5.78135 103.514
5.78729 98.7679
5.79322 94.3612
5.79915 90.2610
5.80509 86.4401
5.81102 82.8735
5.81695 79.5397
5.82288 76.4174
5.82882 73.4900
5.83475 70.7406
5.84068 68.1556
5.84931 64.6618
5.85794 61.4527
5.86559 58.8215
5.87324 56.3717
5.88088 54.0866
5.88853 51.9515
5.89618 49.9535
5.90383 48.0809
5.91148 46.3233
5.91912 44.6714
5.92677 43.1169
5.93442 41.6521
5.94207 40.2701
5.94972 38.9649
5.95736 37.7308
5.96501 36.5626
5.98031 34.4059
5.99657 32.3457
6.01284 30.4937
6.02910 28.8225
6.04536 27.3093
6.06163 25.9346
6.07789 24.6820
6.09416 23.5373
6.11042 22.4885
6.12225 21.7799
6.13408 21.1129
6.14594 20.4822
6.15781 19.8873
6.16967 19.3253
6.18154 18.7939
6.19340 18.2908
6.20527 17.8141
6.22900 16.9328
6.25273 16.1371
6.27646 15.4162
6.30019 14.7611
6.32392 14.1640
6.33839 13.8255
6.35285 13.5048
6.38179 12.9117
6.41072 12.3763
6.43965 11.8912
6.46859 11.4501
6.49752 11.0478
6.52645 10.6798
6.55538 10.3423
6.57651 10.1133
6.59764 9.89773
6.61877 9.69455
6.63990 9.50286
6.66103 9.32178
6.68216 9.15056
6.70329 8.98846
6.72442 8.83483
6.76668 8.55065
6.80894 8.29393
6.85120 8.06128
6.89345 7.84982
6.92150 7.71998
6.94955 7.59774
6.97759 7.48249
7.00564 7.37366
7.03368 7.27074
7.06173 7.17331
7.08977 7.08100
7.11782 6.99349
7.17391 6.83160
7.23000 6.68529
7.28609 6.55263
7.34218 6.43202
7.40375 6.31189
7.46533 6.20299
7.52690 6.10369
7.58847 6.01289
7.65005 5.92978
7.71162 5.85354
7.77320 5.78342
7.83477 5.71876
7.91615 5.64081
7.99753 5.57043
8.07891 5.50640
8.16029 5.44788
8.24167 5.39448
8.32305 5.34571
8.40443 5.30096
8.48581 5.25972
8.54564 5.23145
8.60548 5.20477
8.66531 5.17955
8.72515 5.15572
8.78498 5.13315
8.84482 5.11177
8.96449 5.07223
9.05078 5.04613
9.13707 5.02184
9.22336 4.99921
9.30966 4.97815
9.39595 4.95844
9.48224 4.93988
9.56854 4.92251
9.65483 4.90622
9.74112 4.89092
9.82742 4.87654
9.91371 4.86300
10.0000 4.85028
10.1535 4.82941
10.3070 4.81054
10.4585 4.79369
10.6101 4.77851
10.7616 4.76481
10.9131 4.75248
11.0181 4.74466
11.1232 4.73740
11.2282 4.73072
11.3333 4.72456
11.4383 4.71886
11.5434 4.71367
11.6484 4.70892
11.7535 4.70468
11.9386 4.69840
12.1237 4.69364
12.3089 4.69044
12.4014 4.68945
12.4940 4.68890
12.5866 4.68880
12.6791 4.68918
12.7717 4.69006
12.8642 4.69149
12.9568 4.69351
13.0494 4.69616
13.1419 4.69949
13.2345 4.70354
13.3573 4.71021
13.4801 4.71859
13.6028 4.72890
13.6642 4.73488
13.7256 4.74148
13.7870 4.74875
13.8484 4.75674
13.9098 4.76553
13.9712 4.77518
14.0326 4.78579
14.0940 4.79744
14.1553 4.81026
14.2167 4.82435
14.2848 4.84167
14.3528 4.86101
14.4208 4.88264
14.4889 4.90687
14.5524 4.93215
14.6159 4.96037
14.6794 4.99196
14.7429 5.02742
14.8063 5.06735
14.8698 5.11248
14.9016 5.13726
14.9333 5.16368
14.9651 5.19188
14.9968 5.22201
15.0270 5.25266
15.0573 5.28536
15.0875 5.32032
15.1177 5.35773
15.1479 5.39780
15.1781 5.44080
15.2084 5.48700
15.2386 5.53672
15.2748 5.60153
15.3111 5.67267
15.3473 5.75097
15.3836 5.83739
15.4198 5.93306
15.4561 6.03930
15.4923 6.15770
15.5286 6.29010
15.5597 6.41656
15.5908 6.55673
15.6218 6.71262
15.6529 6.88661
15.6685 6.98136
15.6840 7.08172
15.6996 7.18823
15.7151 7.30138
15.7306 7.42182
15.7462 7.55003
15.7617 7.68677
15.7773 7.83281
15.7907 7.96687
15.8041 8.10899
15.8174 8.25996
15.8308 8.42051
15.8442 8.59162
15.8576 8.77396
15.8710 8.96869
15.8844 9.17696
15.8978 9.40025
15.9112 9.63970
15.9246 9.89712
15.9380 10.1744
15.9514 10.4739
15.9648 10.7976
15.9782 11.1486
15.9915 11.5301
16.0062 11.9855
16.0208 12.4876
16.0354 13.0430
16.0500 13.6600
16.0646 14.3486
16.0719 14.7236
16.0792 15.1208
16.0865 15.5431
16.0938 15.9917
16.1011 16.4701
16.1084 16.9797
16.1151 17.4782
16.1218 18.0088
16.1285 18.5744
16.1352 19.1773
16.1419 19.8231
16.1486 20.5139
16.1553 21.2562
16.1620 22.0529
16.1687 22.9121
16.1754 23.8388
16.1821 24.8400
16.1888 25.9220
16.1955 27.0965
16.2022 28.3694
16.2089 29.7552
16.2156 31.2611
16.2209 32.5616
16.2263 33.9552
16.2316 35.4493
16.2370 37.0485
16.2423 38.7673
16.2476 40.6079
16.2530 42.5865
16.2583 44.7053
16.2637 46.9822
16.2690 49.4238
16.2744 52.0406
16.2797 54.8382
16.2851 57.8378
16.2904 61.0393
16.2958 64.4654
16.3011 68.1140
16.3051 70.9954
16.3091 74.0066
16.3170 80.4540
16.3250 87.4907
16.3330 95.1384
16.3409 103.412
16.3489 112.319
16.3568 121.853
16.3648 132.002
16.3735 143.746
16.3822 156.116
16.3909 169.062
16.3995 182.451
16.4075 195.045
16.4155 207.796
16.4234 220.592
16.4314 233.298
16.4473 257.839
16.4553 269.358
16.4632 280.162
16.4725 291.695
16.4819 301.795
16.4912 310.245
16.5005 316.859
16.5066 320.135
16.5128 322.517
16.5189 323.989
16.5250 324.532
16.5321 323.992
16.5393 322.202
16.5464 319.183
16.5535 314.986
16.5633 307.411
16.5730 297.924
16.5828 286.748
16.5926 274.144
16.6071 253.394
16.6216 231.070
16.6328 213.322
16.6440 195.595
16.6552 178.217
16.6664 161.479
16.6736 151.094
16.6809 141.123
16.6881 131.605
16.6954 122.566
16.7026 114.026
16.7099 105.995
16.7171 98.4759
16.7244 91.4645
16.7316 84.9509
16.7389 78.9204
16.7461 73.3543
16.7534 68.2310
16.7606 63.5268
16.7679 59.2165
16.7751 55.2740
16.7824 51.6731
16.7883 48.9593
16.7942 46.4475
16.8002 44.1194
16.8061 41.9619
16.8120 39.9627
16.8180 38.1097
16.8239 36.3919
16.8298 34.7987
16.8358 33.3177
16.8417 31.9447
16.8476 30.6686
16.8535 29.4814
16.8595 28.3758
16.8654 27.3451
16.8713 26.3830
16.8773 25.4840
16.8845 24.4630
16.8918 23.5198
16.8990 22.6469
16.9063 21.8375
16.9135 21.0854
16.9208 20.3853
16.9280 19.7324
16.9353 19.1222
16.9425 18.5512
16.9498 18.0157
16.9570 17.5127
16.9643 17.0396
16.9715 16.5939
16.9788 16.1735
16.9860 15.7762
16.9933 15.4004
17.0018 14.9817
17.0104 14.5883
17.0190 14.2183
17.0275 13.8700
17.0361 13.5409
17.0447 13.2300
17.0618 12.6577
17.0789 12.1428
17.0961 11.6781
17.1132 11.2567
17.1303 10.8735
17.1453 10.5669
17.1602 10.2831
17.1751 10.0198
17.1901 9.77513
17.2050 9.54710
17.2199 9.33444
17.2348 9.13550
17.2498 8.94935
17.2647 8.77466
17.2796 8.61070
17.2945 8.45640
17.3095 8.31117
17.3244 8.17413
17.3393 8.04483
17.3542 7.92253
17.3692 7.80688
17.3867 7.67845
17.4043 7.55784
17.4218 7.44434
17.4394 7.33740
17.4570 7.23651
17.4745 7.14122
17.4921 7.05110
17.5096 6.96578
17.5448 6.80816
17.5799 6.66606
17.6150 6.53743
17.6501 6.42060
17.6869 6.30950
17.7236 6.20836
17.7603 6.11599
17.7970 6.03142
17.8337 5.95373
17.8704 5.88222
17.9072 5.81623
17.9439 5.75521
17.9706 5.71365
18.0064 5.66122
18.0423 5.61237
18.0782 5.56673
18.1140 5.52404
18.1499 5.48403
18.1858 5.44649
18.2216 5.41121
18.2575 5.37802
18.2934 5.34674
18.3292 5.31725
18.3651 5.28937
18.4010 5.26302
18.4368 5.23807
18.4727 5.21443
18.5444 5.17067
18.5951 5.14233
18.6458 5.11588
18.7149 5.08255
18.7841 5.05207
18.8532 5.02410
18.9223 4.99836
18.9915 4.97461
19.0606 4.95264
19.1298 4.93228
19.1989 4.91337
19.2790 4.89309
19.3591 4.87439
19.4392 4.85708
19.5194 4.84100
19.5995 4.82603
19.6796 4.81208
19.7597 4.79905
19.8398 4.78686
19.9199 4.77543
20.0000 4.76469
20.1172 4.75012
20.2344 4.73676
20.3516 4.72448
20.4688 4.71314
20.5859 4.70264
20.7031 4.69292
20.8203 4.68389
20.9375 4.67543
21.0840 4.66562
21.2305 4.65659
21.3770 4.64824
21.5234 4.64049
21.6699 4.63329
21.8164 4.62657
21.9629 4.62030
22.1094 4.61442
22.3145 4.60679
22.5195 4.59979
22.7246 4.59335
22.9297 4.58737
23.1348 4.58181
23.3399 4.57664
23.5449 4.57182
23.7500 4.56729
23.7793 4.56667
23.8560 4.56506
23.9328 4.56350
24.0862 4.56049
24.3932 4.55484
24.7001 4.54966
25.0071 4.54488
25.3140 4.54046
25.6210 4.53636
25.9279 4.53254
26.2349 4.52898
26.5511 4.52553
26.8674 4.52230
27.1837 4.51928
27.5000 4.51643
27.9688 4.51250
28.4375 4.50887
28.9063 4.50551
29.3750 4.50239
29.8438 4.49949
30.3125 4.49678
30.7813 4.49422
31.2500 4.49183
31.7188 4.48957
32.1875 4.48745
32.6563 4.48544
33.1250 4.48353
33.5938 4.48172
34.0625 4.48000
34.5313 4.47835
35.0000 4.47678
35.3893 4.47553
35.7785 4.47433
36.5570 4.47205
37.3355 4.46992
38.1140 4.46793
38.8925 4.46606
39.6710 4.46430
40.4495 4.46265
41.2280 4.46112
41.8640 4.45986
42.5000 4.45869
43.4375 4.45706
44.3750 4.45553
45.3125 4.45408
46.2500 4.45270
47.1875 4.45140
48.1250 4.45017
49.0625 4.44900
50.0000 4.44788
50.7813 4.44699
51.5625 4.44613
53.1250 4.44451
54.6875 4.44300
56.2500 4.44159
56.2772 4.44156
56.3626 4.44149
56.4479 4.44141
56.7721 4.44114
57.0963 4.44086
57.7446 4.44032
59.0412 4.43929
60.3378 4.43830
61.6344 4.43736
62.9310 4.43647
64.2277 4.43562
65.5243 4.43480
66.8209 4.43402
68.8398 4.43287
70.8587 4.43179
72.8777 4.43077
74.8966 4.42980
75.0000 4.42975
75.3514 4.42959
75.7029 4.42943
76.4058 4.42912
77.8116 4.42851
80.6233 4.42735
83.4350 4.42627
86.2466 4.42526
89.6850 4.42411
93.1233 4.42304
96.5616 4.42204
98.2808 4.42157
98.7105 4.42145
98.8180 4.42142
98.9254 4.42141
98.9792 4.42145
99.0060 4.42149
99.0329 4.42159
99.0463 4.42165
99.0598 4.42175
99.0732 4.42187
99.0866 4.42202
99.1000 4.42223
99.1135 4.42249
99.1269 4.42284
99.1403 4.42327
99.1538 4.42383
99.1672 4.42454
99.1806 4.42544
99.1941 4.42658
99.2075 4.42800
99.2209 4.42979
99.2344 4.43201
99.2478 4.43476
99.2612 4.43817
99.2747 4.44237
99.2881 4.44752
99.3015 4.45381
99.3149 4.46147
99.3284 4.47076
99.3418 4.48198
99.3552 4.49549
99.3687 4.51170
99.3821 4.53105
99.3955 4.55408
99.4090 4.58137
99.4224 4.61360
99.4358 4.65151
99.4493 4.69594
99.4627 4.74782
99.4761 4.80815
99.4828 4.84186
99.4895 4.87805
99.4963 4.91700
99.5030 4.95874
99.5097 5.00357
99.5164 5.05152
99.5231 5.10292
99.5298 5.15781
99.5366 5.21652
99.5433 5.27910
99.5500 5.34592
99.5567 5.41699
99.5634 5.49275
99.5701 5.57317
99.5768 5.65873
99.5836 5.74952
99.5903 5.84579
99.5970 5.94761
99.6037 6.05551
99.6104 6.16942
99.6171 6.28991
99.6239 6.41686
99.6306 6.55089
99.6373 6.69184
99.6440 6.84037
99.6507 6.99627
99.6574 7.16025
99.6641 7.33205
99.6709 7.51240
99.6776 7.70099
99.6843 7.89859
99.6910 8.10483
99.6977 8.32053
99.7044 8.54522
99.7112 8.77977
99.7179 9.02365
99.7246 9.27774
99.7313 9.54143
99.7447 10.0997
99.7582 10.6993
99.7716 11.3410
99.7850 12.0250
99.7985 12.7520
99.8119 13.5206
99.8253 14.3306
99.8387 15.1813
99.8522 16.0711
99.8656 16.9984
99.8790 17.9611
99.8925 18.9569
99.9193 21.0362
99.9462 23.2107
99.9999 4.42110
100.000 50.9860
200.000 37.3661
500.000 25.3234
700.000 22.1324
1000.00 19.3017
2000.00 15.1043
5000.00 11.5092
7000.00 10.6039
10000.0 9.83686
20000.0 8.81826
50000.0 8.20587
70000.0 8.12734
100000 8.08929
114450 8.04596
190741 7.99512
200000 7.99965
247269 7.58284
247351 7.58246
268810 7.58828
278849 7.60709
289911 7.71515
294133 7.76679
300000 7.86733
328298 7.65518
329897 7.64630
342675 7.61794
373427 7.61858
385538 7.62457
400000 7.66116
407742 7.62538
430087 7.53020
437578 7.51289
496143 7.43934
500000 7.43868
545684 7.26641
602630 7.09665
610112 7.08122
629257 7.05496
630789 7.05312
651882 7.02784
679729 7.02044
700000 7.02398
718595 6.96241
724650 6.94573
728731 6.93479
735752 6.91804
748872 6.89358
798756 6.80616
818103 6.78258
850000 6.75341
853937 6.74143
1.00000E+06 6.51216
1.30000E+06 6.09135
1.50000E+06 5.84335
1.80000E+06 5.50880
1.82636E+06 5.48234
2.00000E+06 5.30810
2.03457E+06 5.27667
2.05443E+06 5.25861
2.08652E+06 5.22944
2.18847E+06 5.13675
2.20392E+06 5.12271
2.23998E+06 5.08992
2.25000E+06 5.08081
2.25717E+06 5.07503
2.30918E+06 5.03307
2.36197E+06 4.99050
2.39983E+06 4.95995
2.45536E+06 4.91516
2.47434E+06 4.89986
2.50000E+06 4.87916
2.50452E+06 4.87597
2.57413E+06 4.82695
2.57877E+06 4.82368
2.60127E+06 4.80783
2.69038E+06 4.74508
2.69543E+06 4.74152
2.72491E+06 4.72076
2.75000E+06 4.70309
2.76181E+06 4.69598
2.80878E+06 4.66772
2.81626E+06 4.66322
2.84740E+06 4.64447
2.86238E+06 4.63546
2.88741E+06 4.62040
2.88945E+06 4.61917
2.89638E+06 4.61500
2.90940E+06 4.60717
2.90980E+06 4.60692
3.00000E+06 4.55264
3.20000E+06 4.45057
3.40000E+06 4.36426
3.60000E+06 4.29292
3.80000E+06 4.23551
4.00000E+06 4.19070
4.13697E+06 4.16766
4.20000E+06 4.15705
4.40000E+06 4.13309
4.60000E+06 4.11731
4.80000E+06 4.10835
5.00000E+06 4.10497
5.50000E+06 4.11430
6.00000E+06 4.13977
6.20999E+06 4.11792
7.00000E+06 4.21277
8.00000E+06 4.29393
9.00000E+06 4.36755
1.00000E+07 4.42048
1.10000E+07 4.44515
1.20000E+07 4.44097
1.30000E+07 4.41112
1.40000E+07 4.35934
1.50000E+07 4.28944
1.60000E+07 4.20584
1.70000E+07 4.11290
1.80000E+07 4.01486
1.90000E+07 3.91557
2.00000E+07 3.81832
