Ba-135(n,tot) ENDFB-8.0
Energy(eV) XS(b)
1.00000E-05 153.876
1.03125E-05 151.533
1.06250E-05 149.294
1.09375E-05 147.152
1.12500E-05 145.100
1.15625E-05 143.131
1.18750E-05 141.241
1.21875E-05 139.425
1.25000E-05 137.677
1.28125E-05 135.993
1.31250E-05 134.370
1.34375E-05 132.804
1.37500E-05 131.291
1.43750E-05 128.416
1.50000E-05 125.723
1.56250E-05 123.193
1.62500E-05 120.811
1.68750E-05 118.562
1.75000E-05 116.435
1.81250E-05 114.420
1.87500E-05 112.506
1.93750E-05 110.686
2.00000E-05 108.951
2.09375E-05 106.498
2.18750E-05 104.203
2.28125E-05 102.052
2.37500E-05 100.030
2.46875E-05 98.1247
2.56250E-05 96.3249
2.65625E-05 94.6214
2.75000E-05 93.0060
2.84375E-05 91.4714
2.93750E-05 90.0109
3.03125E-05 88.6190
3.12500E-05 87.2903
3.21875E-05 86.0202
3.31250E-05 84.8046
3.40625E-05 83.6396
3.50000E-05 82.5219
3.59375E-05 81.4484
3.68750E-05 80.4161
3.78125E-05 79.4227
3.87500E-05 78.4656
3.96875E-05 77.5427
4.06250E-05 76.6521
4.25000E-05 74.9603
4.43750E-05 73.3773
4.62500E-05 71.8919
4.81250E-05 70.4944
5.00000E-05 69.1767
5.15625E-05 68.1341
5.31250E-05 67.1380
5.46875E-05 66.1852
5.62500E-05 65.2724
5.78125E-05 64.3971
5.93750E-05 63.5568
6.09375E-05 62.7491
6.25000E-05 61.9720
6.40625E-05 61.2236
6.56250E-05 60.5023
6.71875E-05 59.8064
6.87500E-05 59.1345
7.18750E-05 57.8573
7.50000E-05 56.6613
7.81250E-05 55.5381
8.12500E-05 54.4807
8.43750E-05 53.4829
8.75000E-05 52.5394
9.06250E-05 51.6455
9.37500E-05 50.7968
9.68750E-05 49.9899
0.000100000 49.2213
0.000103125 48.4882
0.000106250 47.7879
0.000109375 47.1180
0.000112500 46.4764
0.000115625 45.8612
0.000118750 45.2706
0.000121875 44.7031
0.000125000 44.1571
0.000128125 43.6314
0.000131250 43.1248
0.000134375 42.6360
0.000137500 42.1642
0.000143750 41.2675
0.000150000 40.4279
0.000156250 39.6396
0.000162500 38.8976
0.000168750 38.1977
0.000175000 37.5359
0.000181250 36.9090
0.000187500 36.3140
0.000193750 35.7484
0.000200000 35.2097
0.000209375 34.4478
0.000218750 33.7360
0.000228125 33.0689
0.000237500 32.4422
0.000246875 31.8520
0.000256250 31.2947
0.000265625 30.7676
0.000275000 30.2680
0.000284375 29.7936
0.000293750 29.3424
0.000303125 28.9124
0.000312500 28.5023
0.000321875 28.1104
0.000331250 27.7354
0.000340625 27.3762
0.000350000 27.0318
0.000359375 26.7010
0.000368750 26.3832
0.000378125 26.0773
0.000387500 25.7828
0.000396875 25.4989
0.000406250 25.2250
0.000425000 24.7050
0.000443750 24.2188
0.000462500 23.7627
0.000481250 23.3340
0.000500000 22.9299
0.000515625 22.6103
0.000531250 22.3051
0.000546875 22.0133
0.000562500 21.7338
0.000578125 21.4659
0.000593750 21.2088
0.000609375 20.9618
0.000625000 20.7242
0.000640625 20.4954
0.000656250 20.2750
0.000671875 20.0624
0.000687500 19.8571
0.000718750 19.4672
0.000750000 19.1022
0.000781250 18.7595
0.000812500 18.4371
0.000843750 18.1329
0.000875000 17.8454
0.000906250 17.5730
0.000937500 17.3145
0.000968750 17.0688
0.00100000 16.8348
0.00103125 16.6117
0.00106250 16.3985
0.00109375 16.1947
0.00112500 15.9995
0.00115625 15.8123
0.00118750 15.6327
0.00121875 15.4600
0.00125000 15.2940
0.00128125 15.1341
0.00131250 14.9800
0.00134375 14.8314
0.00137500 14.6880
0.00143750 14.4153
0.00150000 14.1600
0.00156250 13.9204
0.00162500 13.6948
0.00168750 13.4819
0.00175000 13.2807
0.00181250 13.0901
0.00187500 12.9091
0.00193750 12.7371
0.00200000 12.5732
0.00209375 12.3414
0.00218750 12.1248
0.00228125 11.9218
0.00237500 11.7310
0.00246875 11.5513
0.00256250 11.3815
0.00265625 11.2209
0.00275000 11.0687
0.00284375 10.9241
0.00293750 10.7865
0.00303125 10.6554
0.00312500 10.5303
0.00321875 10.4107
0.00331250 10.2962
0.00340625 10.1866
0.00350000 10.0814
0.00359375 9.98038
0.00368750 9.88326
0.00378125 9.78979
0.00387500 9.69976
0.00396875 9.61295
0.00406250 9.52918
0.00425000 9.37009
0.00443750 9.22124
0.00462500 9.08159
0.00481250 8.95022
0.00500000 8.82635
0.00515625 8.72836
0.00531250 8.63474
0.00546875 8.54518
0.00562500 8.45940
0.00578125 8.37714
0.00593750 8.29817
0.00609375 8.22226
0.00625000 8.14923
0.00640625 8.07891
0.00656250 8.01112
0.00671875 7.94572
0.00687500 7.88257
0.00718750 7.76254
0.00750000 7.65011
0.00781250 7.54453
0.00812500 7.44512
0.00843750 7.35131
0.00875000 7.26258
0.00906250 7.17851
0.00937500 7.09868
0.00968750 7.02277
0.0100000 6.95046
0.0103125 6.88147
0.0106250 6.81556
0.0109375 6.75250
0.0112500 6.69211
0.0115625 6.63419
0.0118750 6.57858
0.0121875 6.52513
0.0125000 6.47371
0.0128125 6.42419
0.0131250 6.37645
0.0134375 6.33040
0.0137500 6.28592
0.0143750 6.20138
0.0150000 6.12220
0.0156250 6.04782
0.0162500 5.97779
0.0168750 5.91169
0.0175000 5.84917
0.0181250 5.78992
0.0187500 5.73366
0.0193750 5.68016
0.0200000 5.62919
0.0206625 5.57772
0.0213250 5.52867
0.0219875 5.48186
0.0226500 5.43713
0.0233125 5.39432
0.0239750 5.35331
0.0246375 5.31396
0.0253000 5.27618
0.0264578 5.21360
0.0276156 5.15501
0.0287734 5.10000
0.0299313 5.04824
0.0310891 4.99940
0.0322469 4.95323
0.0334047 4.90948
0.0345625 4.86796
0.0355274 4.83491
0.0364922 4.80319
0.0374570 4.77269
0.0384219 4.74336
0.0393867 4.71510
0.0403516 4.68787
0.0413164 4.66160
0.0422813 4.63623
0.0442109 4.58802
0.0461406 4.54287
0.0480703 4.50047
0.0500000 4.46056
0.0515625 4.42990
0.0531250 4.40061
0.0546875 4.37259
0.0562500 4.34574
0.0578125 4.31999
0.0593750 4.29527
0.0609375 4.27151
0.0625000 4.24866
0.0640625 4.22664
0.0656250 4.20543
0.0671875 4.18496
0.0687500 4.16520
0.0718750 4.12762
0.0750000 4.09241
0.0781250 4.05933
0.0812500 4.02817
0.0843750 3.99876
0.0875000 3.97094
0.0906250 3.94457
0.0937500 3.91954
0.0968750 3.89573
0.100000 3.87305
0.103125 3.85140
0.106250 3.83073
0.109375 3.81094
0.112500 3.79199
0.115625 3.77381
0.118750 3.75636
0.121875 3.73958
0.125000 3.72344
0.128125 3.70790
0.131250 3.69292
0.134375 3.67847
0.137500 3.66452
0.143750 3.63799
0.150000 3.61313
0.156250 3.58976
0.162500 3.56775
0.168750 3.54697
0.175000 3.52732
0.181250 3.50870
0.187500 3.49102
0.193750 3.47421
0.200000 3.45820
0.209375 3.43554
0.218750 3.41434
0.228125 3.39444
0.237500 3.37574
0.246875 3.35812
0.256250 3.34146
0.265625 3.32570
0.275000 3.31075
0.284375 3.29655
0.293750 3.28303
0.303125 3.27014
0.312500 3.25783
0.321875 3.24606
0.331250 3.23480
0.340625 3.22400
0.350000 3.21364
0.359375 3.20368
0.368750 3.19411
0.378125 3.18489
0.387500 3.17601
0.396875 3.16746
0.406250 3.15920
0.425000 3.14351
0.443750 3.12879
0.462500 3.11497
0.500000 3.08972
0.531250 3.07075
0.562500 3.05331
0.593750 3.03726
0.625000 3.02242
0.687500 2.99579
0.750000 2.97251
0.812500 2.95192
0.875000 2.93357
0.937500 2.91704
1.00000 2.90200
1.06250 2.88827
1.12500 2.87565
1.25000 2.85320
1.37500 2.83375
1.50000 2.81665
1.62500 2.80144
1.75000 2.78779
1.87500 2.77542
2.00000 2.76409
2.18750 2.74876
2.37500 2.73508
2.56250 2.72273
2.75000 2.71149
2.93750 2.70116
3.12500 2.69160
3.31250 2.68269
3.50000 2.67435
3.87500 2.65909
4.25000 2.64537
4.62500 2.63284
5.00000 2.62128
5.31250 2.61226
5.62500 2.60369
6.25000 2.58770
6.87500 2.57291
7.50000 2.55905
8.12500 2.54592
8.75000 2.53338
9.37500 2.52131
10.0000 2.50964
10.6250 2.49829
11.2500 2.48724
11.8750 2.47644
12.5000 2.46589
13.1250 2.45558
13.7500 2.44552
14.3750 2.43573
15.0000 2.42628
15.6250 2.41722
16.2500 2.40869
16.8750 2.40084
17.1875 2.39724
17.5000 2.39393
17.8125 2.39094
18.1250 2.38836
18.4375 2.38626
18.7500 2.38474
19.0625 2.38394
19.3750 2.38402
19.6875 2.38522
20.0000 2.38777
20.2247 2.39066
20.4494 2.39471
20.6741 2.40010
20.8988 2.40714
21.1235 2.41621
21.2359 2.42166
21.3482 2.42782
21.4606 2.43477
21.5730 2.44262
21.6853 2.45149
21.7977 2.46152
21.9202 2.47390
22.0428 2.48805
22.1654 2.50438
22.2879 2.52322
22.4105 2.54500
22.5331 2.57025
22.5943 2.58440
22.6556 2.59968
22.7169 2.61622
22.7782 2.63414
22.8701 2.66393
22.9620 2.69772
23.0540 2.73621
23.1459 2.78024
23.1919 2.80464
23.2378 2.83081
23.2838 2.85891
23.3297 2.88914
23.3757 2.92173
23.4217 2.95694
23.4676 2.99504
23.5136 3.03636
23.5698 3.09174
23.6259 3.15318
23.6821 3.22156
23.7383 3.29790
23.7945 3.38349
23.8506 3.47982
23.8787 3.53258
23.9068 3.58874
23.9349 3.64860
23.9630 3.71246
24.0090 3.82664
24.0549 3.95438
24.1009 4.09789
24.1239 4.17636
24.1468 4.25982
24.1698 4.34871
24.1928 4.44346
24.2158 4.54461
24.2388 4.65277
24.2618 4.76861
24.2847 4.89287
24.3077 5.02639
24.3307 5.17011
24.3588 5.36123
24.3869 5.57144
24.4150 5.80336
24.4431 6.06008
24.4711 6.34528
24.4992 6.66334
24.5133 6.83636
24.5273 7.01953
24.5414 7.21380
24.5554 7.42010
24.5688 7.62931
24.5822 7.85141
24.5956 8.08750
24.6090 8.33860
24.6224 8.60645
24.6358 8.89214
24.6493 9.19781
24.6627 9.52491
24.6761 9.87607
24.6895 10.2532
24.7029 10.6596
24.7163 11.0979
24.7297 11.5723
24.7431 12.0862
24.7565 12.6453
24.7699 13.2542
24.7839 13.9536
24.7980 14.7237
24.8120 15.5760
24.8261 16.5218
24.8401 17.5775
24.8471 18.1514
24.8542 18.7597
24.8612 19.4052
24.8682 20.0910
24.8752 20.8207
24.8822 21.5981
24.8893 22.4285
24.8963 23.3144
24.9033 24.2619
24.9103 25.2767
24.9174 26.3664
24.9244 27.5348
24.9314 28.7908
24.9384 30.1422
24.9455 31.6001
24.9525 33.1697
24.9595 34.8632
24.9665 36.6917
24.9735 38.6669
24.9806 40.8014
24.9876 43.1084
24.9946 45.6020
24.9997 47.5429
25.0048 49.5961
25.0099 51.7678
25.0150 54.0594
25.0201 56.4861
25.0252 59.0496
25.0304 61.7562
25.0355 64.6064
25.0406 67.6173
25.0457 70.7894
25.0508 74.1285
25.0559 77.6330
25.0610 81.3216
25.0661 85.1845
25.0712 89.2411
25.0763 93.4790
25.0833 99.6358
25.0904 106.153
25.0974 113.040
25.1044 120.297
25.1114 127.928
25.1184 135.901
25.1255 144.214
25.1325 152.844
25.1376 159.313
25.1427 165.912
25.1491 174.363
25.1555 182.976
25.1619 191.744
25.1682 200.605
25.1746 209.544
25.1810 218.491
25.1874 227.413
25.1938 236.261
25.2078 255.229
25.2219 272.998
25.2345 287.499
25.2471 300.152
25.2560 307.685
25.2648 314.013
25.2736 319.050
25.2824 322.717
25.2912 324.957
25.3000 325.735
25.3077 325.206
25.3154 323.556
25.3231 320.806
25.3309 316.992
25.3373 313.016
25.3437 308.369
25.3566 297.194
25.3695 283.829
25.3824 268.699
25.3906 258.369
25.3988 247.630
25.4151 225.324
25.4315 202.643
25.4478 180.348
25.4642 159.059
25.4723 148.936
25.4805 139.238
25.4887 129.974
25.4969 121.190
25.5050 112.879
25.5132 105.071
25.5214 97.7454
25.5296 90.9074
25.5377 84.5460
25.5459 78.6533
25.5541 73.1964
25.5623 68.1680
25.5704 63.5328
25.5786 59.2783
25.5849 56.2288
25.5913 53.3774
25.5976 50.7129
25.6039 48.2280
25.6102 45.9038
25.6165 43.7372
25.6228 41.7112
25.6291 39.8225
25.6355 38.0558
25.6418 36.4054
25.6481 34.8629
25.6544 33.4229
25.6607 32.0732
25.6670 30.8115
25.6734 29.6273
25.6797 28.5184
25.6879 27.1812
25.6960 25.9487
25.7042 24.8080
25.7124 23.7530
25.7206 22.7732
25.7287 21.8638
25.7369 21.0162
25.7451 20.2269
25.7533 19.4886
25.7614 18.7987
25.7696 18.1513
25.7778 17.5443
25.7860 16.9730
25.7941 16.4358
25.8023 15.9286
25.8105 15.4504
25.8268 14.5700
25.8432 13.7794
25.8595 13.0664
25.8759 12.4207
25.8922 11.8338
25.9086 11.2986
25.9249 10.8088
25.9413 10.3597
25.9576 9.94611
25.9740 9.56459
25.9903 9.21178
26.0067 8.88480
26.0230 8.58110
26.0394 8.29847
26.0557 8.03495
26.0721 7.78882
26.0884 7.55855
26.1048 7.34277
26.1211 7.14026
26.1375 6.94993
26.1538 6.77082
26.1702 6.60203
26.1865 6.44278
26.2029 6.29235
26.2356 6.01539
26.2683 5.76662
26.3010 5.54228
26.3337 5.33922
26.3664 5.15479
26.3991 4.98674
26.4318 4.83317
26.4645 4.69242
26.4912 4.58580
26.5180 4.48618
26.5447 4.39287
26.5715 4.30541
26.5982 4.22323
26.6250 4.14597
26.6517 4.07320
26.6785 4.00456
26.7320 3.87844
26.7855 3.76547
26.8390 3.66386
26.8925 3.57212
26.9252 3.52036
26.9579 3.47156
27.0233 3.38193
27.0887 3.30167
27.1541 3.22948
27.2195 3.16427
27.2849 3.10516
27.3503 3.05137
27.4157 3.00228
27.4722 2.96325
27.5287 2.92701
27.5852 2.89329
27.6417 2.86182
27.6981 2.83238
27.7546 2.80478
27.8111 2.77887
27.8676 2.75453
27.9805 2.71001
28.0935 2.67033
28.2065 2.63477
28.3194 2.60273
28.4086 2.57959
28.4978 2.55813
28.5870 2.53818
28.6761 2.51958
28.7653 2.50220
28.8545 2.48593
29.0329 2.45637
29.2112 2.43002
29.3896 2.40634
29.5679 2.38496
29.7463 2.36553
29.9247 2.34776
30.1030 2.33142
30.2814 2.31631
30.4597 2.30227
30.6381 2.28916
30.8165 2.27686
31.1732 2.25447
31.5299 2.23419
31.8866 2.21570
32.2434 2.19867
32.6001 2.18283
33.1233 2.16135
33.6465 2.14150
34.1697 2.12297
34.6928 2.10554
35.2160 2.08903
35.7392 2.07337
36.2624 2.05848
36.7856 2.04437
37.3088 2.03108
37.8320 2.01867
38.3552 2.00728
38.8784 1.99709
39.4016 1.98835
39.9248 1.98143
40.1864 1.97879
40.4480 1.97681
40.7096 1.97554
40.9711 1.97510
41.3041 1.97595
41.6370 1.97865
41.9700 1.98355
42.3029 1.99090
42.6358 2.00168
42.8023 2.00851
42.9688 2.01644
43.1353 2.02560
43.3017 2.03612
43.4682 2.04818
43.6347 2.06194
43.8725 2.08501
44.1103 2.11275
44.3481 2.14608
44.4670 2.16519
44.5859 2.18614
44.7048 2.20912
44.8237 2.23435
44.9427 2.26206
45.0616 2.29252
45.1805 2.32599
45.2994 2.36276
45.4183 2.40326
45.5372 2.44810
45.6680 2.50309
45.7988 2.56474
45.9296 2.63400
46.0604 2.71200
46.1912 2.80011
46.3220 2.89998
46.4528 3.01358
46.5182 3.07626
46.5836 3.14331
46.6965 3.27059
46.8095 3.41439
46.9225 3.57750
46.9789 3.66731
47.0354 3.76328
47.0919 3.86592
47.1484 3.97581
47.2049 4.09359
47.2613 4.21999
47.3178 4.35587
47.3743 4.50220
47.4308 4.66009
47.4873 4.83077
47.5527 5.04621
47.6181 5.28305
47.6835 5.54407
47.7489 5.83248
47.8143 6.15220
47.8797 6.50776
47.9451 6.90454
48.0104 7.34893
48.0669 7.77713
48.1234 8.25253
48.1799 8.78222
48.2364 9.37463
48.2646 9.69755
48.2929 10.0400
48.3211 10.4037
48.3493 10.7904
48.3776 11.2021
48.4058 11.6410
48.4341 12.1096
48.4623 12.6105
48.4950 13.2350
48.5114 13.5667
48.5277 13.9123
48.5441 14.2726
48.5604 14.6485
48.5768 15.0409
48.5931 15.4506
48.6095 15.8789
48.6258 16.3267
48.6422 16.7954
48.6585 17.2862
48.6749 17.8005
48.6912 18.3400
48.7076 18.9062
48.7239 19.5006
48.7402 20.1258
48.7566 20.7838
48.7729 21.4768
48.7893 22.2073
48.8056 22.9782
48.8220 23.7926
48.8383 24.6537
48.8547 25.5654
48.8710 26.5317
48.8874 27.5572
48.9037 28.6469
48.9201 29.8065
48.9364 31.0421
48.9528 32.3607
48.9691 33.7703
48.9855 35.2797
49.0018 36.8988
49.0182 38.6392
49.0264 39.5594
49.0345 40.5137
49.0427 41.5064
49.0509 42.5372
49.0591 43.6108
49.0672 44.7269
49.0754 45.8909
49.0836 47.1026
49.0918 48.3680
49.0999 49.6872
49.1081 51.0653
49.1163 52.5061
49.1245 54.0154
49.1326 55.5942
49.1408 57.2511
49.1490 58.9875
49.1572 60.8132
49.1653 62.7302
49.1735 64.7501
49.1817 66.8754
49.1899 69.1196
49.1980 71.4862
49.2062 73.9909
49.2144 76.6384
49.2226 79.4470
49.2307 82.4228
49.2389 85.5873
49.2471 88.9482
49.2553 92.5307
49.2634 96.3447
49.2716 100.420
49.2798 104.768
49.2880 109.423
49.2961 114.401
49.3043 119.741
49.3125 125.461
49.3207 131.609
49.3288 138.203
49.3370 145.299
49.3452 152.919
49.3534 161.126
49.3615 169.945
49.3697 179.446
49.3779 189.658
49.3831 196.571
49.3883 203.799
49.3935 211.370
49.3987 219.299
49.4039 227.616
49.4091 236.307
49.4143 245.401
49.4195 254.915
49.4247 264.884
49.4299 275.287
49.4351 286.156
49.4403 297.510
49.4455 309.362
49.4507 321.729
49.4559 334.626
49.4611 348.068
49.4693 370.349
49.4775 394.035
49.4856 419.231
49.4938 445.918
49.5020 474.196
49.5102 504.021
49.5183 535.484
49.5265 568.515
49.5347 603.189
49.5429 639.404
49.5510 677.216
49.5592 716.485
49.5674 757.245
49.5756 799.317
49.5919 887.192
49.6083 979.121
49.6246 1073.83
49.6573 1265.17
49.6826 1406.89
49.6952 1473.03
49.7078 1534.71
49.7224 1599.17
49.7370 1655.00
49.7516 1700.97
49.7662 1735.98
49.7747 1750.96
49.7831 1761.86
49.7916 1768.61
49.8000 1771.16
49.8048 1770.72
49.8127 1767.07
49.8205 1759.81
49.8284 1748.99
49.8362 1734.70
49.8519 1696.11
49.8676 1645.11
49.8787 1602.51
49.8897 1555.04
49.9008 1503.21
49.9118 1447.75
49.9329 1333.96
49.9540 1213.76
49.9770 1080.24
50.0000 949.211
50.0176 853.411
50.0351 762.788
50.0439 719.725
50.0527 678.356
50.0614 638.702
50.0702 600.813
50.0806 558.333
50.0909 518.385
50.1013 480.962
50.1117 446.028
50.1220 413.523
50.1324 383.371
50.1428 355.479
50.1531 329.765
50.1619 309.574
50.1707 290.794
50.1795 273.311
50.1882 257.090
50.1970 242.018
50.2058 228.058
50.2146 215.119
50.2233 203.133
50.2321 192.019
50.2409 181.738
50.2497 172.217
50.2584 163.397
50.2672 155.215
50.2760 147.638
50.2847 140.609
50.2935 134.082
50.3023 128.011
50.3111 122.370
50.3198 117.112
50.3286 112.217
50.3374 107.643
50.3462 103.373
50.3549 99.3782
50.3637 95.6353
50.3725 92.1198
50.3813 88.8209
50.3900 85.7176
50.3988 82.7943
50.4076 80.0338
50.4163 77.4296
50.4339 72.6348
50.4482 69.0740
50.4626 65.8011
50.4770 62.7838
50.4913 59.9965
50.5057 57.4111
50.5200 55.0107
50.5344 52.7737
50.5487 50.6876
50.5631 48.7356
50.5774 46.9082
50.5918 45.1921
50.6062 43.5801
50.6205 42.0614
50.6349 40.6307
50.6492 39.2789
50.6636 38.0019
50.6811 36.5326
50.6987 35.1563
50.7162 33.8652
50.7338 32.6528
50.7513 31.5112
50.7689 30.4362
50.7864 29.4212
50.8039 28.4629
50.8390 26.6972
50.8741 25.1109
50.9092 23.6796
50.9443 22.3833
50.9651 21.6735
50.9858 21.0020
51.0273 19.7629
51.0687 18.6465
51.1102 17.6368
51.1517 16.7200
51.1932 15.8852
51.2346 15.1225
51.2761 14.4235
51.3112 13.8765
51.3463 13.3664
51.3814 12.8898
51.4165 12.4439
51.4516 12.0258
51.4867 11.6334
51.5217 11.2647
51.5568 10.9176
51.5919 10.5904
51.6270 10.2818
51.6621 9.99022
51.6972 9.71449
51.7674 9.20598
51.8376 8.74827
51.9141 8.29904
51.9907 7.89521
52.0673 7.53071
52.1438 7.20065
52.2204 6.90075
52.2970 6.62751
52.3735 6.37774
52.4501 6.14870
52.5203 5.95492
52.5904 5.77510
52.6606 5.60791
52.7308 5.45227
52.8010 5.30713
52.8712 5.17162
52.9414 5.04489
53.0116 4.92624
53.0817 4.81499
53.1519 4.71058
53.2923 4.52017
53.4327 4.35138
53.5730 4.20128
53.6687 4.10837
53.7644 4.02235
53.8602 3.94264
53.9559 3.86875
54.0516 3.80024
54.1473 3.73676
54.3387 3.62356
54.5301 3.52616
54.7215 3.44259
54.9129 3.37169
55.1043 3.31233
55.3085 3.26074
55.5127 3.22050
55.7679 3.18535
56.0231 3.16659
56.2783 3.16418
56.5335 3.17861
56.7887 3.21091
56.9163 3.23423
57.0439 3.26266
57.1716 3.29650
57.2992 3.33611
57.4268 3.38190
57.5544 3.43432
57.7330 3.51992
57.9117 3.62128
58.0903 3.74017
58.2690 3.87909
58.4476 4.04194
58.6263 4.23240
58.7156 4.33931
58.8049 4.45483
58.8943 4.57976
58.9836 4.71488
59.1239 4.95013
59.2643 5.21707
59.3345 5.36396
59.4047 5.52069
59.4749 5.68811
59.5451 5.86701
59.6152 6.05841
59.6854 6.26330
59.7556 6.48289
59.8258 6.71839
59.8960 6.97124
59.9662 7.24291
60.0363 7.53519
60.1065 7.85013
60.1767 8.19012
60.2469 8.55769
60.3171 8.95586
60.3873 9.38772
60.4575 9.85703
60.5276 10.3678
60.5978 10.9247
60.6680 11.5333
60.7382 12.2000
60.8084 12.9316
60.8786 13.7370
60.9487 14.6256
60.9838 15.1048
61.0189 15.6091
61.0540 16.1405
61.0891 16.7008
61.1242 17.2921
61.1593 17.9166
61.1944 18.5769
61.2295 19.2756
61.2598 19.9123
61.2901 20.5819
61.3204 21.2866
61.3507 22.0288
61.3810 22.8114
61.4113 23.6372
61.4416 24.5092
61.4719 25.4307
61.5022 26.4059
61.5325 27.4389
61.5629 28.5340
61.5932 29.6961
61.6235 30.9315
61.6538 32.2459
61.6841 33.6461
61.7144 35.1394
61.7495 36.9971
61.7846 39.0057
61.8197 41.1823
61.8548 43.5461
61.8898 46.1191
61.9249 48.9263
61.9600 51.9971
61.9951 55.3653
62.0302 59.0716
62.0653 63.1606
62.0829 65.3663
62.1004 67.6881
62.1179 70.1370
62.1355 72.7195
62.1530 75.4489
62.1706 78.3348
62.1881 81.3896
62.2057 84.6249
62.2232 88.0596
62.2408 91.7062
62.2583 95.5874
62.2759 99.7192
62.2910 103.512
62.3062 107.524
62.3213 111.779
62.3365 116.291
62.3516 121.089
62.3668 126.190
62.3819 131.626
62.3971 137.427
62.4122 143.631
62.4274 150.268
62.4425 157.386
62.4577 165.032
62.4729 173.267
62.4880 182.141
62.5032 191.728
62.5183 202.105
62.5359 215.231
62.5534 229.683
62.5709 245.655
62.5885 263.331
62.5973 272.894
62.6060 282.964
62.6148 293.584
62.6236 304.792
62.6324 316.638
62.6411 329.135
62.6499 342.340
62.6587 356.296
62.6674 371.068
62.6762 386.671
62.6850 403.192
62.6938 420.646
62.7025 439.128
62.7113 458.653
62.7201 479.301
62.7289 501.130
62.7376 524.228
62.7464 548.605
62.7552 574.348
62.7639 601.517
62.7727 630.209
62.7815 660.416
62.7903 692.228
62.7990 725.700
62.8070 757.643
62.8150 791.040
62.8309 862.271
62.8469 939.642
62.8628 1023.28
62.8788 1113.20
62.8947 1209.31
62.9107 1311.37
62.9266 1418.99
62.9442 1543.13
62.9617 1672.23
62.9968 1940.16
63.0319 2209.50
63.0495 2339.63
63.0670 2463.61
63.0805 2553.51
63.0940 2637.37
63.1075 2714.17
63.1210 2782.94
63.1346 2842.80
63.1481 2892.96
63.1616 2932.75
63.1751 2961.62
63.1875 2978.27
63.2000 2985.10
63.2135 2981.35
63.2270 2966.08
63.2405 2939.51
63.2540 2902.03
63.2676 2854.17
63.2811 2796.61
63.2946 2730.13
63.3081 2655.66
63.3292 2525.03
63.3504 2380.93
63.3716 2227.42
63.3928 2068.47
63.4338 1758.10
63.4544 1607.70
63.4749 1463.52
63.4871 1381.92
63.4992 1303.33
63.5113 1227.97
63.5235 1156.05
63.5356 1087.53
63.5477 1022.59
63.5599 961.139
63.5720 903.245
63.5823 856.929
63.5925 813.038
63.6028 771.512
63.6131 732.279
63.6234 695.261
63.6336 660.374
63.6439 627.527
63.6542 596.629
63.6644 567.584
63.6747 540.299
63.6850 514.679
63.6952 490.629
63.7055 468.059
63.7158 446.880
63.7261 427.005
63.7363 408.351
63.7466 390.840
63.7569 374.395
63.7671 358.947
63.7774 344.426
63.7877 330.770
63.7979 317.919
63.8082 305.816
63.8185 294.411
63.8288 283.654
63.8390 273.501
63.8493 263.908
63.8596 254.839
63.8801 238.124
63.9006 223.108
63.9156 213.116
63.9305 203.829
63.9455 195.180
63.9604 187.117
63.9753 179.577
63.9903 172.519
64.0052 165.902
64.0201 159.693
64.0351 153.849
64.0500 148.346
64.0650 143.156
64.0799 138.258
64.0948 133.624
64.1098 129.238
64.1396 121.141
64.1602 116.040
64.1807 111.280
64.2013 106.829
64.2218 102.661
64.2423 98.7514
64.2629 95.0787
64.2834 91.6236
64.3039 88.3702
64.3245 85.2998
64.3450 82.3999
64.3656 79.6579
64.3861 77.0621
64.4272 72.2683
64.4683 67.9463
64.5093 64.0330
64.5504 60.4782
64.5915 57.2385
64.6326 54.2769
64.6737 51.5618
64.7147 49.0661
64.7558 46.7662
64.7969 44.6422
64.8361 42.7610
64.8753 41.0102
64.9145 39.3771
64.9537 37.8512
64.9929 36.4229
65.0322 35.0840
65.0714 33.8269
65.1106 32.6449
65.1498 31.5322
65.1890 30.4832
65.2282 29.4931
65.2674 28.5576
65.3066 27.6725
65.3458 26.8342
65.4243 25.2852
65.5064 23.8241
65.5886 22.5065
65.6707 21.3137
65.7529 20.2303
65.8350 19.2426
65.9172 18.3396
65.9994 17.5116
66.0815 16.7504
66.1487 16.1723
66.2159 15.6307
66.2832 15.1225
66.3504 14.6448
66.4176 14.1951
66.4848 13.7710
66.5520 13.3704
66.6193 12.9917
66.6865 12.6332
66.7537 12.2935
66.8881 11.6655
67.0226 11.0983
67.1570 10.5841
67.2392 10.2930
67.3213 10.0179
67.4035 9.75749
67.4856 9.51082
67.6499 9.05462
67.8143 8.64242
67.9786 8.26846
68.1429 7.92798
68.3072 7.61689
68.4715 7.33175
68.5985 7.12728
68.7254 6.93538
68.8524 6.75505
68.9794 6.58548
69.1064 6.42578
69.2333 6.27486
69.4873 5.99630
69.7412 5.74570
69.9951 5.51948
70.2491 5.31441
70.5030 5.12781
70.6823 5.00595
70.8615 4.89147
71.0408 4.78376
71.2200 4.68227
71.5785 4.49605
71.9370 4.32949
72.2955 4.17990
72.6540 4.04512
73.0125 3.92419
73.3710 3.81386
73.7295 3.71369
74.0880 3.62273
74.4465 3.54007
74.8050 3.46514
75.1336 3.40286
75.4623 3.34617
75.7909 3.29476
76.1195 3.24860
76.4481 3.20739
76.7768 3.17093
77.1054 3.13932
77.4340 3.11251
77.7626 3.09038
78.0913 3.07314
78.4199 3.06094
78.7485 3.05378
79.0771 3.05197
79.4058 3.05589
79.7344 3.06571
80.0630 3.08183
80.5410 3.11771
81.0190 3.16984
81.4970 3.24045
81.9750 3.33227
82.3335 3.41678
82.6920 3.51576
83.0505 3.63348
83.4090 3.77133
83.7675 3.93210
83.9468 4.02213
84.1260 4.11923
84.3053 4.22393
84.4845 4.33683
84.6638 4.45857
84.8430 4.58986
85.1119 4.80646
85.3808 5.04932
85.6496 5.32198
85.7841 5.47072
85.9185 5.62849
86.0529 5.79592
86.1874 5.97361
86.3218 6.16217
86.4563 6.36222
86.5907 6.57483
86.7251 6.80130
86.8596 7.04281
86.9940 7.30036
87.1583 7.63866
87.3226 8.00515
87.4869 8.40270
87.6513 8.83459
87.8156 9.30452
87.9799 9.81663
88.1442 10.3757
88.3085 10.9873
88.4728 11.6576
88.6371 12.3939
88.8014 13.2045
88.8836 13.6407
88.9658 14.0992
89.0479 14.5816
89.1301 15.0894
89.2122 15.6244
89.2944 16.1884
89.3765 16.7836
89.4587 17.4120
89.5409 18.0763
89.6230 18.7789
89.7649 20.0919
89.8359 20.8000
89.9068 21.5455
89.9778 22.3313
90.0487 23.1598
90.1197 24.0345
90.1906 24.9584
90.2616 25.9355
90.3325 26.9693
90.4035 28.0643
90.4744 29.2253
90.5454 30.4580
90.6164 31.7681
90.6873 33.1627
90.7583 34.6492
90.8404 36.4965
90.9226 38.4923
91.0047 40.6524
91.0869 42.9948
91.1690 45.5409
91.2512 48.3139
91.3334 51.3423
91.4155 54.6573
91.4977 58.2972
91.5798 62.3050
91.6620 66.7321
91.7441 71.6385
91.7852 74.2938
91.8263 77.0972
91.8674 80.0597
91.9084 83.1930
91.9495 86.5120
91.9906 90.0309
92.0317 93.7660
92.0728 97.7345
92.1362 104.378
92.1997 111.713
92.2632 119.843
92.2950 124.242
92.3267 128.886
92.3584 133.795
92.3902 138.988
92.4219 144.488
92.4537 150.322
92.4854 156.518
92.5172 163.104
92.5489 170.115
92.5806 177.591
92.6217 188.026
92.6628 199.415
92.7039 211.880
92.7449 225.560
92.7860 240.629
92.8271 257.281
92.8682 275.753
92.8887 285.756
92.9093 296.319
92.9298 307.496
92.9503 319.330
92.9709 331.877
92.9914 345.195
93.0120 359.352
93.0325 374.420
93.0530 390.484
93.0736 407.634
93.0941 425.975
93.1147 445.623
93.1352 466.707
93.1557 489.375
93.1763 513.795
93.1968 540.153
93.2174 568.664
93.2379 599.554
93.2640 642.784
93.2771 666.221
93.2902 690.993
93.3032 717.199
93.3163 744.947
93.3294 774.353
93.3424 805.543
93.3555 838.649
93.3686 873.819
93.3817 911.206
93.3947 950.978
93.4078 993.312
93.4209 1038.40
93.4339 1086.43
93.4470 1137.63
93.4675 1225.02
93.4881 1321.69
93.5086 1428.60
93.5292 1546.78
93.5497 1677.25
93.5702 1821.06
93.5908 1979.20
93.6113 2152.60
93.6319 2342.08
93.6524 2548.29
93.6729 2771.65
93.6935 3012.30
93.7140 3270.04
93.7346 3544.27
93.7551 3833.92
93.7756 4137.26
93.8055 4599.03
93.8354 5076.81
93.8951 6035.08
93.9139 6323.24
93.9327 6598.51
93.9515 6857.28
93.9702 7095.44
93.9890 7309.53
94.0078 7495.87
94.0266 7651.50
94.0453 7773.75
94.0590 7840.55
94.0727 7887.88
94.0863 7915.30
94.1000 7922.55
94.1178 7901.70
94.1356 7846.97
94.1533 7759.18
94.1711 7639.79
94.1889 7490.50
94.2067 7313.75
94.2244 7112.09
94.2422 6888.40
94.2683 6526.36
94.2944 6134.03
94.3466 5299.40
94.3958 4507.65
94.4204 4126.95
94.4450 3763.02
94.4618 3526.37
94.4786 3300.04
94.4954 3084.63
94.5122 2880.56
94.5289 2688.04
94.5457 2507.11
94.5625 2337.66
94.5793 2179.49
94.5916 2070.42
94.6039 1967.16
94.6162 1869.36
94.6285 1776.99
94.6408 1689.69
94.6531 1607.39
94.6654 1529.72
94.6777 1456.60
94.6900 1387.68
94.7023 1322.85
94.7146 1261.79
94.7269 1204.37
94.7393 1150.31
94.7516 1099.47
94.7639 1051.59
94.7762 1006.55
94.7885 964.115
94.8008 924.143
94.8131 886.477
94.8254 850.994
94.8377 817.494
94.8500 785.899
94.8623 756.033
94.8746 727.827
94.8869 701.128
94.8992 675.876
94.9238 629.262
94.9484 587.306
94.9731 549.424
94.9898 525.669
95.0066 503.432
95.0234 482.587
95.0402 463.019
95.0570 444.626
95.0737 427.315
95.0905 411.000
95.1073 395.607
95.1241 381.065
95.1409 367.312
95.1576 354.291
95.1744 341.950
95.2080 319.122
95.2415 298.497
95.2661 284.609
95.2908 271.659
95.3154 259.565
95.3400 248.252
95.3646 237.652
95.3892 227.708
95.4138 218.366
95.4384 209.578
95.4630 201.302
95.4876 193.498
95.5122 186.132
95.5369 179.171
95.5615 172.587
95.5861 166.354
95.6107 160.447
95.6353 154.845
95.6599 149.527
95.6845 144.476
95.7337 135.105
95.7830 126.614
95.8322 118.901
95.8814 111.879
95.9306 105.475
95.9798 99.6258
96.0291 94.2755
96.0783 89.3762
96.1275 84.8888
96.1767 80.7768
96.2259 77.0093
96.2752 73.5594
96.3244 70.4041
96.3736 67.5234
96.4228 64.9002
96.4542 63.3577
96.4855 61.9108
96.5168 60.5562
96.5481 59.2911
96.5794 58.1132
96.6108 57.0212
96.6421 56.0132
96.6734 55.0880
96.7159 53.9630
96.7584 52.9873
96.8009 52.1606
96.8434 51.4833
96.8647 51.2013
96.8860 50.9574
96.9072 50.7521
96.9285 50.5858
96.9497 50.4590
96.9710 50.3725
96.9922 50.3270
97.0135 50.3232
97.0381 50.3722
97.0627 50.4800
97.0873 50.6484
97.1119 50.8794
97.1365 51.1752
97.1611 51.5383
97.1857 51.9712
97.1981 52.2149
97.2104 52.4770
97.2283 52.8925
97.2462 53.3497
97.2641 53.8499
97.2820 54.3948
97.2999 54.9860
97.3178 55.6253
97.3357 56.3145
97.3535 57.0554
97.3659 57.5965
97.3782 58.1635
97.3905 58.7582
97.4028 59.3803
97.4151 60.0318
97.4274 60.7125
97.4397 61.4245
97.4520 62.1675
97.4643 62.9439
97.4766 63.7542
97.4889 64.5994
97.5012 65.4801
97.5135 66.3990
97.5258 67.3560
97.5381 68.3539
97.5504 69.3926
97.5639 70.5761
97.5773 71.8122
97.5907 73.1040
97.6041 74.4540
97.6176 75.8656
97.6310 77.3395
97.6444 78.8794
97.6578 80.4884
97.6701 82.0277
97.6824 83.6291
97.6947 85.2978
97.7070 87.0341
97.7193 88.8439
97.7316 90.7273
97.7440 92.6911
97.7563 94.7355
97.7686 96.8679
97.7809 99.0888
97.7932 101.406
97.8055 103.821
97.8178 106.343
97.8301 108.971
97.8424 111.718
97.8547 114.583
97.8670 117.578
97.8793 120.709
97.8916 123.981
97.9039 127.400
97.9162 130.981
97.9285 134.727
97.9408 138.653
97.9531 142.764
97.9655 147.077
97.9778 151.599
97.9901 156.349
98.0024 161.335
98.0147 166.580
98.0270 172.092
98.0393 177.899
98.0516 184.011
98.0639 190.460
98.0762 197.258
98.0885 204.442
98.1008 212.029
98.1131 220.061
98.1254 228.558
98.1377 237.571
98.1500 247.123
98.1623 257.273
98.1746 268.052
98.1869 279.528
98.1992 291.738
98.2116 304.763
98.2239 318.648
98.2362 333.487
98.2485 349.334
98.2597 364.708
98.2708 381.063
98.2820 398.475
98.2932 417.004
98.3044 436.767
98.3156 457.819
98.3268 480.294
98.3380 504.252
98.3491 529.842
98.3603 557.159
98.3715 586.321
98.3827 617.423
98.3939 650.652
98.4051 686.083
98.4163 723.920
98.4274 764.238
98.4398 811.715
98.4521 862.618
98.4644 917.149
98.4767 975.459
98.4890 1037.84
98.5013 1104.40
98.5136 1175.41
98.5259 1250.95
98.5382 1331.30
98.5505 1416.48
98.5628 1506.74
98.5751 1602.04
98.5874 1702.62
98.5997 1808.32
98.6120 1919.34
98.6243 2035.45
98.6366 2156.74
98.6489 2282.89
98.6613 2413.90
98.6736 2549.33
98.6982 2832.56
98.7228 3129.45
98.7474 3435.89
98.7720 3746.84
98.7966 4056.44
98.8212 4358.18
98.8480 4670.01
98.8749 4954.90
98.8883 5084.47
98.9017 5204.02
98.9151 5312.57
98.9285 5409.18
98.9464 5518.05
98.9643 5602.55
98.9821 5661.53
99.0000 5694.04
99.0089 5700.24
99.0235 5695.97
99.0380 5674.05
99.0525 5634.79
99.0670 5578.72
99.0816 5506.45
99.0961 5418.92
99.1106 5317.07
99.1251 5202.02
99.1447 5028.53
99.1642 4836.66
99.1837 4629.72
99.2033 4411.15
99.2401 3979.46
99.2769 3540.12
99.3137 3111.62
99.3321 2906.10
99.3505 2708.33
99.3690 2519.39
99.3874 2340.10
99.4058 2171.02
99.4242 2012.46
99.4426 1864.55
99.4610 1727.22
99.4794 1600.24
99.4978 1483.27
99.5162 1375.88
99.5346 1277.56
99.5531 1187.75
99.5715 1105.90
99.5832 1057.63
99.5949 1012.16
99.6066 969.368
99.6183 929.122
99.6300 891.213
99.6418 855.564
99.6535 821.980
99.6652 790.388
99.6769 760.611
99.6886 732.557
99.7003 706.116
99.7121 681.201
99.7238 657.670
99.7355 635.471
99.7472 614.476
99.7589 594.641
99.7740 570.669
99.7890 548.322
99.8041 527.447
99.8192 507.919
99.8342 489.612
99.8493 472.449
99.8644 456.322
99.8794 441.148
99.8945 426.842
99.9095 413.352
99.9246 400.606
99.9397 388.547
99.9698 366.291
99.9999 313.875
100.000 313.826
100.000 313.776
100.001 313.577
100.001 313.379
100.002 312.982
100.003 312.240
100.006 310.717
100.012 307.756
100.025 301.977
100.049 290.962
100.073 280.620
100.098 270.896
100.122 261.703
100.147 253.072
100.171 244.924
100.196 237.222
100.220 229.904
100.244 223.000
100.269 216.451
100.293 210.233
100.342 198.700
100.391 188.242
100.440 178.705
100.489 170.015
100.537 162.054
100.586 154.739
100.635 147.986
100.684 141.761
100.733 135.997
100.781 130.646
100.830 125.659
100.879 121.020
100.928 116.687
100.977 112.632
101.026 108.823
101.074 105.254
101.123 101.897
101.172 98.7347
101.221 95.7455
101.270 92.9275
101.319 90.2618
101.367 87.7368
101.416 85.3374
101.465 83.0641
101.563 78.8469
101.660 75.0167
101.758 71.5281
101.856 68.3389
101.953 65.4164
102.051 62.7244
102.149 60.2425
102.246 57.9433
102.344 55.8122
102.442 53.8281
102.539 51.9805
102.637 50.2527
102.735 48.6370
102.832 47.1202
102.930 45.6965
103.028 44.3553
103.125 43.0923
103.223 41.8986
103.321 40.7701
103.418 39.7016
103.516 38.6897
103.614 37.7281
103.711 36.8151
103.906 35.1182
104.102 33.5753
104.297 32.1670
104.492 30.8768
104.688 29.6908
104.883 28.5967
105.078 27.5854
105.274 26.6477
105.469 25.7759
105.664 24.9637
105.860 24.2051
106.055 23.4953
106.250 22.8298
106.446 22.2043
106.641 21.6160
106.836 21.0616
107.031 20.5382
107.227 20.0433
107.422 19.5749
107.617 19.1308
107.813 18.7093
108.008 18.3085
108.203 17.9274
108.399 17.5644
108.594 17.2183
108.985 16.5723
109.375 15.9816
109.766 15.4394
110.156 14.9404
110.547 14.4796
110.938 14.0529
111.328 13.6567
111.719 13.2881
112.110 12.9442
112.500 12.6228
112.891 12.3216
113.281 12.0390
113.672 11.7733
114.063 11.5231
114.453 11.2871
114.844 11.0641
115.235 10.8532
115.625 10.6533
116.016 10.4637
116.406 10.2836
116.797 10.1123
117.188 9.94925
117.578 9.79380
117.969 9.64552
118.360 9.50391
118.750 9.36852
119.531 9.11486
120.313 8.88182
121.094 8.66699
121.875 8.46839
122.656 8.28423
123.438 8.11306
124.219 7.95355
125.000 7.80458
125.781 7.66513
126.563 7.53436
127.344 7.41146
128.125 7.29578
128.906 7.18669
129.688 7.08366
130.469 6.98620
131.250 6.89388
132.031 6.80629
132.813 6.72310
133.594 6.64397
134.375 6.56864
135.156 6.49681
135.938 6.42828
136.719 6.36280
137.500 6.30019
138.281 6.24025
139.063 6.18283
139.844 6.12776
140.625 6.07492
142.188 5.97537
143.750 5.88324
145.313 5.79773
146.875 5.71816
148.438 5.64393
150.000 5.57452
151.563 5.50947
153.125 5.44838
154.688 5.39091
156.250 5.33673
157.813 5.28558
159.375 5.23720
160.938 5.19137
162.500 5.14789
164.063 5.10659
165.625 5.06730
167.188 5.02988
168.750 4.99419
170.313 4.96012
171.875 4.92755
173.438 4.89638
175.000 4.86654
176.563 4.83792
178.125 4.81045
179.688 4.78406
181.250 4.75869
182.813 4.73427
184.375 4.71076
185.938 4.68809
187.500 4.66622
190.625 4.62469
193.750 4.58586
196.875 4.54944
200.000 4.51518
201.929 4.49501
203.858 4.47553
205.787 4.45669
207.716 4.43845
209.645 4.42076
211.574 4.40359
213.502 4.38689
215.431 4.37063
217.360 4.35477
219.289 4.33927
221.218 4.32410
223.147 4.30921
225.076 4.29455
227.005 4.28010
228.934 4.26578
230.863 4.25155
232.792 4.23735
233.756 4.23023
234.720 4.22308
235.685 4.21590
236.649 4.20867
237.614 4.20136
238.578 4.19398
239.543 4.18649
240.507 4.17887
241.472 4.17110
242.436 4.16315
243.401 4.15497
243.883 4.15079
244.365 4.14654
244.847 4.14221
245.329 4.13779
245.812 4.13329
246.294 4.12868
246.776 4.12396
247.258 4.11912
247.741 4.11415
248.223 4.10904
248.705 4.10377
249.187 4.09833
249.669 4.09270
250.152 4.08686
250.634 4.08080
250.875 4.07767
251.116 4.07448
251.357 4.07122
251.598 4.06789
251.839 4.06449
252.081 4.06100
252.322 4.05744
252.563 4.05378
252.804 4.05004
253.045 4.04621
253.286 4.04228
253.527 4.03825
253.768 4.03411
254.009 4.02987
254.251 4.02551
254.492 4.02105
254.733 4.01648
254.974 4.01179
255.215 4.00700
255.456 4.00211
255.697 3.99712
255.938 3.99206
256.059 3.98951
256.180 3.98694
256.300 3.98438
256.421 3.98181
256.541 3.97925
256.662 3.97671
256.782 3.97418
256.903 3.97170
257.023 3.96926
257.144 3.96688
257.265 3.96459
257.385 3.96240
257.506 3.96033
257.626 3.95843
257.747 3.95672
257.867 3.95526
257.988 3.95408
258.108 3.95327
258.229 3.95290
258.350 3.95307
258.470 3.95388
258.591 3.95549
258.651 3.95665
258.711 3.95807
258.772 3.95980
258.832 3.96185
258.892 3.96427
258.952 3.96710
259.013 3.97038
259.073 3.97416
259.133 3.97851
259.193 3.98349
259.254 3.98917
259.314 3.99564
259.374 4.00299
259.435 4.01135
259.495 4.02083
259.555 4.03157
259.615 4.04376
259.676 4.05759
259.736 4.07328
259.796 4.09107
259.856 4.11132
259.917 4.13437
259.977 4.16065
260.037 4.19067
260.098 4.22504
260.158 4.26448
260.188 4.28641
260.218 4.30988
260.248 4.33509
260.278 4.36221
260.309 4.39149
260.339 4.42294
260.369 4.45698
260.399 4.49361
260.429 4.53335
260.459 4.57621
260.489 4.62266
260.520 4.67306
260.550 4.72801
260.580 4.78763
260.610 4.85284
260.640 4.92381
260.670 5.00171
260.700 5.08681
260.731 5.18025
260.761 5.28307
260.791 5.39688
260.821 5.52229
260.851 5.66180
260.881 5.81635
260.911 5.98924
260.942 6.18196
260.972 6.39817
260.987 6.51664
261.002 6.64162
261.017 6.77538
261.032 6.91777
261.047 7.06949
261.062 7.23024
261.077 7.40303
261.092 7.58779
261.107 7.78560
261.122 7.99621
261.137 8.22374
261.153 8.46835
261.168 8.73169
261.183 9.01371
261.198 9.32025
261.213 9.64961
261.228 10.0089
261.243 10.3963
261.258 10.8205
261.273 11.2830
261.288 11.7884
261.303 12.3380
261.318 12.9453
261.333 13.6137
261.348 14.3514
261.363 15.1624
261.379 16.0685
261.394 17.0778
261.409 18.2061
261.416 18.8164
261.424 19.4633
261.431 20.1589
261.439 20.8883
261.446 21.6637
261.454 22.4890
261.461 23.3804
261.469 24.3194
261.476 25.3222
261.484 26.3948
261.492 27.5593
261.499 28.7921
261.507 30.1344
261.514 31.5598
261.522 33.1163
261.529 34.7744
261.537 36.5662
261.544 38.5059
261.552 40.6386
261.559 42.9266
261.567 45.4518
261.574 48.1715
261.578 49.6442
261.582 51.1856
261.586 52.7998
261.590 54.4456
261.593 56.2167
261.597 58.0244
261.601 59.9719
261.605 61.9621
261.608 64.1086
261.612 66.3656
261.616 68.7403
261.620 71.1728
261.623 73.8028
261.627 76.5751
261.631 79.4991
261.635 82.5019
261.639 85.7565
261.642 89.1958
261.646 92.8326
261.650 96.5765
261.654 100.644
261.657 104.837
261.661 109.397
261.665 114.103
261.669 119.226
261.672 124.665
261.676 130.442
261.680 136.413
261.684 142.925
261.687 149.659
261.691 157.007
261.695 164.608
261.699 172.901
261.703 181.716
261.706 191.081
261.710 200.757
261.714 211.291
261.718 222.154
261.721 233.952
261.725 246.079
261.727 254.286
261.730 262.403
261.732 271.136
261.734 279.752
261.737 288.996
261.739 298.089
261.742 307.810
261.744 317.337
261.749 337.371
261.753 358.002
261.758 378.975
261.763 399.509
261.767 420.091
261.772 439.788
261.777 458.051
261.781 474.304
261.786 487.969
261.791 498.522
261.795 505.533
261.800 508.687
261.805 508.004
261.809 503.436
261.814 495.218
261.819 483.736
261.824 469.481
261.828 453.005
261.833 434.874
261.838 416.051
261.842 396.201
261.847 376.151
261.856 336.776
261.861 317.935
261.866 299.873
261.870 282.684
261.875 266.759
261.880 249.223
261.886 232.932
261.891 217.849
261.897 203.919
261.902 191.076
261.907 179.247
261.913 168.356
261.918 158.510
261.924 149.265
261.929 140.748
261.934 132.897
261.940 125.654
261.945 118.964
261.951 112.778
261.956 107.053
261.961 101.842
261.967 96.9125
261.972 92.3332
261.977 88.0739
261.983 84.1072
261.988 80.4085
261.994 76.9555
261.999 73.7278
262.004 70.7614
262.010 67.9279
262.015 65.2700
262.021 62.7741
262.026 60.4276
262.031 58.2193
262.037 56.1388
262.042 54.1767
262.047 52.3577
262.053 50.6055
262.058 48.9481
262.064 47.3790
262.069 45.8922
262.080 43.1434
262.091 40.6844
262.101 38.4360
262.112 36.3940
262.123 34.5341
262.134 32.8505
262.144 31.2937
262.155 29.8646
262.166 28.5496
262.177 27.3477
262.188 26.2262
262.198 25.1875
262.209 24.2239
262.220 23.3360
262.231 22.5013
262.241 21.7226
262.252 20.9951
262.263 20.3205
262.274 19.6821
262.285 19.0830
262.295 18.5200
262.306 17.9950
262.317 17.4955
262.328 17.0243
262.338 16.5794
262.349 16.1624
262.360 15.7640
262.371 15.3864
262.392 14.6914
262.414 14.0607
262.435 13.4916
262.457 12.9716
262.478 12.4994
262.500 12.0652
262.522 11.6687
262.543 11.3038
262.565 10.9672
262.586 10.6545
262.608 10.3662
262.629 10.0973
262.651 9.84833
262.672 9.61517
262.694 9.39847
262.715 9.19485
262.737 9.00497
262.759 8.82597
262.780 8.65855
262.802 8.50026
262.823 8.35179
262.845 8.21105
262.866 8.07870
262.888 7.95292
262.909 7.83437
262.931 7.72145
262.952 7.61478
262.974 7.51296
262.996 7.41659
263.039 7.23701
263.082 7.07371
263.125 6.92471
263.168 6.78831
263.211 6.66310
263.254 6.54807
263.297 6.44164
263.340 6.34315
263.383 6.25180
263.426 6.16689
263.470 6.08780
263.513 6.01398
263.556 5.94496
263.599 5.88030
263.642 5.81962
263.685 5.76260
263.728 5.70893
263.771 5.65833
263.814 5.61056
263.857 5.56541
263.901 5.52267
263.944 5.48226
263.987 5.44383
264.030 5.40733
264.073 5.37262
264.116 5.33958
264.202 5.27807
264.288 5.22207
264.374 5.17080
264.461 5.12374
264.547 5.08044
264.633 5.04050
264.719 5.00349
264.805 4.96915
264.892 4.93720
264.978 4.90742
265.064 4.87959
265.150 4.85354
265.236 4.82910
265.322 4.80617
265.409 4.78456
265.495 4.76418
265.581 4.74494
265.667 4.72676
265.753 4.70952
265.840 4.69318
265.926 4.67766
266.012 4.66292
266.098 4.64887
266.184 4.63549
266.357 4.61053
266.529 4.58771
266.701 4.56680
266.874 4.54754
267.046 4.52976
267.218 4.51327
267.391 4.49797
267.563 4.48370
267.736 4.47037
267.908 4.45790
268.080 4.44620
268.253 4.43520
268.425 4.42483
268.597 4.41504
268.770 4.40579
268.942 4.39702
269.114 4.38870
269.287 4.38080
269.459 4.37328
269.632 4.36611
269.804 4.35927
269.976 4.35273
270.149 4.34648
270.321 4.34049
270.493 4.33474
270.838 4.32393
271.183 4.31393
271.527 4.30465
271.872 4.29599
272.217 4.28789
272.562 4.28030
272.906 4.27317
273.251 4.26643
273.596 4.26007
273.941 4.25404
274.285 4.24832
274.630 4.24287
274.975 4.23767
275.319 4.23271
275.664 4.22797
276.009 4.22342
276.354 4.21905
276.698 4.21486
277.043 4.21082
277.388 4.20692
277.733 4.20317
278.422 4.19602
279.111 4.18933
279.801 4.18302
280.490 4.17706
281.180 4.17142
281.869 4.16604
282.559 4.16092
283.248 4.15602
283.938 4.15133
284.627 4.14682
285.316 4.14247
286.006 4.13829
286.695 4.13425
287.385 4.13034
288.074 4.12655
289.453 4.11930
290.832 4.11244
292.211 4.10593
293.590 4.09972
294.969 4.09378
296.348 4.08807
297.727 4.08259
299.105 4.07731
300.484 4.07220
301.863 4.06725
303.242 4.06246
306.000 4.05329
306.000 34.0083
350.000 32.0536
400.000 30.2372
500.000 27.4610
600.000 25.4130
700.000 23.8561
720.000 23.5448
850.000 21.9870
900.000 21.5191
1000.00 20.5833
1250.00 18.8346
1500.00 17.5458
1700.00 16.7277
2000.00 15.7405
2500.00 14.5122
3000.00 13.6081
3500.00 12.9074
4000.00 12.3441
5000.00 11.4864
6000.00 10.8566
7000.00 10.3697
7200.00 10.2850
8500.00 9.81097
9000.00 9.65736
10000.0 9.40588
11000.0 9.15440
12300.0 8.89942
12413.5 8.87716
12413.5 8.87716
12415.0 8.87693
12415.0 8.87083
20000.0 8.10878
50000.0 7.05266
70000.0 6.79059
100000 6.15930
120000 5.90543
140000 5.72801
150000 5.66549
160000 5.60296
170000 5.55932
180000 5.51568
190000 5.48623
200000 5.45678
210000 5.44054
220000 5.42429
230000 5.40805
240000 5.40358
250000 5.39912
260000 5.39465
270000 5.39944
280000 5.40422
290438 5.40922
290438 5.40922
291200 5.40958
293380 5.41226
293380 5.41226
302400 5.42337
304665 5.42615
304665 5.42615
310000 5.43272
320000 5.44503
330000 5.45734
340000 5.46964
350000 5.48195
360000 5.50115
370000 5.52034
380000 5.53953
390000 5.55873
400000 5.57792
410000 5.59712
420000 5.61631
430000 5.64043
440000 5.66456
450000 5.68868
460000 5.71281
500000 5.80930
520000 5.85755
540000 5.90580
543887 5.91517
543887 5.91517
560000 5.95404
577500 5.99626
580000 6.00229
581933 6.00691
581933 6.00691
600000 6.05009
620000 6.09789
635346 6.13457
635346 6.13457
640000 6.14570
660000 6.19350
676500 6.23293
680000 6.24130
681614 6.24516
681614 6.24516
700000 6.28910
720000 6.32988
750000 6.39106
760000 6.41145
780000 6.45224
792000 6.47671
792001 6.47671
800000 6.49302
800026 6.49306
820000 6.52594
840000 6.55885
850000 6.57531
860000 6.59177
865016 6.60002
865016 6.60002
869308 6.60709
869308 6.60709
870000 6.60823
883300 6.63011
890000 6.64114
890044 6.64121
890044 6.64121
893843 6.64747
893843 6.64747
902000 6.66089
908846 6.66891
908846 6.66891
930952 6.69480
930952 6.69480
976153 6.74775
976153 6.74775
1.00000E+06 6.77568
1.01000E+06 6.78739
1.02000E+06 6.79911
1.02933E+06 6.81004
1.02933E+06 6.81004
1.03000E+06 6.81082
1.04000E+06 6.81771
1.05000E+06 6.82460
1.06000E+06 6.83149
1.07000E+06 6.83838
1.08000E+06 6.84527
1.09000E+06 6.85216
1.10000E+06 6.85905
1.11000E+06 6.86594
1.13000E+06 6.87972
1.14000E+06 6.88661
1.15000E+06 6.89350
1.16000E+06 6.89742
1.17000E+06 6.90134
1.20000E+06 6.91311
1.29576E+06 6.92872
1.30000E+06 6.92941
1.40000E+06 6.91924
1.50000E+06 6.88728
1.60000E+06 6.83779
1.70000E+06 6.76934
1.80000E+06 6.70088
1.90000E+06 6.61508
2.00000E+06 6.52927
2.01000E+06 6.52069
2.02000E+06 6.51211
2.04000E+06 6.49495
2.06000E+06 6.47779
2.08000E+06 6.46063
2.10000E+06 6.44347
2.50000E+06 6.08697
2.60000E+06 5.99785
2.62000E+06 5.98002
2.64000E+06 5.96220
2.66000E+06 5.94437
2.68000E+06 5.92655
2.70000E+06 5.90872
2.72000E+06 5.89272
2.74000E+06 5.87672
2.76000E+06 5.86071
2.78000E+06 5.84471
2.80000E+06 5.82871
2.82000E+06 5.81271
2.84000E+06 5.79671
2.86000E+06 5.78070
2.88000E+06 5.76470
2.90000E+06 5.74870
3.00000E+06 5.66869
3.50000E+06 5.31329
4.00000E+06 4.99927
5.00000E+06 4.48990
6.00000E+06 4.20390
7.00000E+06 4.14495
7.24356E+06 4.16560
7.24356E+06 4.16560
7.74534E+06 4.20815
8.00000E+06 4.22974
8.25518E+06 4.26564
9.00000E+06 4.37042
1.00000E+07 4.51110
1.10000E+07 4.63003
1.20000E+07 4.71982
1.30000E+07 4.78056
1.40000E+07 4.81365
1.49677E+07 4.82016
1.50000E+07 4.82038
1.60000E+07 4.80252
1.70000E+07 4.76212
1.71361E+07 4.75371
1.71361E+07 4.75371
1.80000E+07 4.70035
1.90000E+07 4.61844
2.00000E+07 4.51970
