Ce-142(n,tot) ENDFB-8.0
Energy(eV) XS(b)
1.00000E-05 25611.0
1.03125E-05 25220.0
1.06250E-05 24846.4
1.09375E-05 24489.0
1.12500E-05 24146.5
1.15625E-05 23818.1
1.18750E-05 23502.6
1.21875E-05 23199.4
1.25000E-05 22907.7
1.28125E-05 22626.7
1.31250E-05 22355.7
1.34375E-05 22094.3
1.37500E-05 21841.9
1.43750E-05 21361.9
1.50000E-05 20912.2
1.56250E-05 20489.8
1.62500E-05 20092.1
1.68750E-05 19716.6
1.75000E-05 19361.4
1.81250E-05 19024.8
1.87500E-05 18705.1
1.93750E-05 18401.1
2.00000E-05 18111.4
2.09375E-05 17701.4
2.18750E-05 17318.1
2.28125E-05 16958.7
2.37500E-05 16620.7
2.46875E-05 16302.2
2.56250E-05 16001.4
2.65625E-05 15716.6
2.75000E-05 15446.5
2.84375E-05 15189.9
2.93750E-05 14945.7
3.03125E-05 14712.9
3.12500E-05 14490.6
3.21875E-05 14278.1
3.31250E-05 14074.8
3.40625E-05 13879.8
3.50000E-05 13692.8
3.59375E-05 13513.1
3.68750E-05 13340.4
3.78125E-05 13174.1
3.87500E-05 13013.8
3.96875E-05 12859.3
4.06250E-05 12710.2
4.25000E-05 12426.9
4.43750E-05 12161.7
4.62500E-05 11912.8
4.81250E-05 11678.7
5.00000E-05 11457.8
5.15625E-05 11283.0
5.31250E-05 11116.0
5.46875E-05 10956.2
5.62500E-05 10803.1
5.78125E-05 10656.3
5.93750E-05 10515.3
6.09375E-05 10379.7
6.25000E-05 10249.3
6.40625E-05 10123.7
6.56250E-05 10002.6
6.71875E-05 9885.72
6.87500E-05 9772.87
7.18750E-05 9558.32
7.50000E-05 9357.33
7.81250E-05 9168.52
8.12500E-05 8990.72
8.43750E-05 8822.89
8.75000E-05 8664.15
9.06250E-05 8513.68
9.37500E-05 8370.81
9.68750E-05 8234.91
0.000100000 8105.44
0.000103125 7981.90
0.000106250 7863.85
0.000109375 7750.90
0.000112500 7642.69
0.000115625 7538.91
0.000118750 7439.24
0.000121875 7343.44
0.000125000 7251.26
0.000128125 7162.47
0.000131250 7076.87
0.000134375 6994.28
0.000137500 6914.52
0.000143750 6762.88
0.000150000 6620.83
0.000156250 6487.39
0.000162500 6361.73
0.000168750 6243.12
0.000175000 6130.93
0.000181250 6024.60
0.000187500 5923.63
0.000193750 5827.59
0.000200000 5736.09
0.000209375 5606.61
0.000218750 5485.55
0.000228125 5372.03
0.000237500 5265.31
0.000246875 5164.73
0.000256250 5069.73
0.000265625 4979.80
0.000275000 4894.52
0.000284375 4813.49
0.000293750 4736.38
0.000303125 4662.87
0.000312500 4592.70
0.000321875 4525.63
0.000331250 4461.42
0.000340625 4399.88
0.000350000 4340.83
0.000359375 4284.11
0.000368750 4229.57
0.000378125 4177.08
0.000387500 4126.50
0.000396875 4077.72
0.000406250 4030.65
0.000425000 3941.22
0.000443750 3857.52
0.000462500 3778.97
0.000481250 3705.06
0.000500000 3635.35
0.000515625 3580.19
0.000531250 3527.48
0.000546875 3477.05
0.000562500 3428.74
0.000578125 3382.40
0.000593750 3337.90
0.000609375 3295.13
0.000625000 3253.97
0.000640625 3214.33
0.000656250 3176.11
0.000671875 3139.24
0.000687500 3103.63
0.000718750 3035.93
0.000750000 2972.50
0.000781250 2912.93
0.000812500 2856.83
0.000843750 2803.87
0.000875000 2753.78
0.000906250 2706.30
0.000937500 2661.22
0.000968750 2618.34
0.00100000 2577.49
0.00103125 2538.51
0.00106250 2501.26
0.00109375 2465.62
0.00112500 2431.48
0.00115625 2398.73
0.00118750 2367.28
0.00121875 2337.05
0.00125000 2307.96
0.00128125 2279.94
0.00131250 2252.93
0.00134375 2226.87
0.00137500 2201.70
0.00143750 2153.85
0.00150000 2109.02
0.00156250 2066.90
0.00162500 2027.24
0.00168750 1989.81
0.00175000 1954.40
0.00181250 1920.83
0.00187500 1888.96
0.00193750 1858.65
0.00200000 1829.76
0.00209375 1788.88
0.00218750 1750.66
0.00228125 1714.82
0.00237500 1681.12
0.00246875 1649.36
0.00256250 1619.36
0.00265625 1590.96
0.00275000 1564.02
0.00284375 1538.43
0.00293750 1514.07
0.00303125 1490.85
0.00312500 1468.68
0.00321875 1447.49
0.00331250 1427.21
0.00340625 1407.76
0.00350000 1389.10
0.00359375 1371.18
0.00368750 1353.94
0.00378125 1337.35
0.00387500 1321.36
0.00396875 1305.95
0.00406250 1291.07
0.00425000 1262.79
0.00443750 1236.33
0.00462500 1211.49
0.00481250 1188.12
0.00500000 1166.07
0.00515625 1148.62
0.00531250 1131.95
0.00546875 1115.99
0.00562500 1100.71
0.00578125 1086.04
0.00593750 1071.96
0.00609375 1058.42
0.00625000 1045.40
0.00640625 1032.85
0.00656250 1020.75
0.00671875 1009.07
0.00687500 997.799
0.00718750 976.359
0.00750000 956.270
0.00781250 937.396
0.00812500 919.618
0.00843750 902.835
0.00875000 886.956
0.00906250 871.903
0.00937500 857.607
0.00968750 844.007
0.0100000 831.047
0.0103125 818.679
0.0106250 806.859
0.0109375 795.549
0.0112500 784.711
0.0115625 774.315
0.0118750 764.331
0.0121875 754.732
0.0125000 745.494
0.0128125 736.595
0.0131250 728.014
0.0134375 719.734
0.0137500 711.736
0.0143750 696.526
0.0150000 682.272
0.0156250 668.876
0.0162500 656.257
0.0168750 644.340
0.0175000 633.064
0.0181250 622.372
0.0187500 612.217
0.0193750 602.553
0.0200000 593.343
0.0206625 584.038
0.0213250 575.167
0.0219875 566.697
0.0226500 558.599
0.0233125 550.846
0.0239750 543.414
0.0246375 536.282
0.0253000 529.430
0.0263613 518.991
0.0274227 509.159
0.0284840 499.877
0.0295453 491.096
0.0306067 482.772
0.0316680 474.866
0.0327293 467.345
0.0337906 460.178
0.0348037 453.641
0.0358168 447.379
0.0368299 441.375
0.0378430 435.609
0.0388561 430.067
0.0398692 424.734
0.0408822 419.598
0.0418953 414.646
0.0429084 409.868
0.0439215 405.253
0.0459477 396.480
0.0479738 388.260
0.0500000 380.538
0.0515625 374.891
0.0531250 369.490
0.0546875 364.320
0.0562500 359.362
0.0578125 354.603
0.0593750 350.030
0.0609375 345.631
0.0625000 341.395
0.0640625 337.312
0.0656250 333.374
0.0671875 329.572
0.0687500 325.897
0.0718750 318.902
0.0750000 312.336
0.0781250 306.157
0.0812500 300.327
0.0843750 294.816
0.0875000 289.594
0.0906250 284.638
0.0937500 279.924
0.0968750 275.434
0.100000 271.150
0.103125 267.056
0.106250 263.138
0.109375 259.384
0.112500 255.782
0.115625 252.322
0.118750 248.995
0.121875 245.792
0.125000 242.705
0.128125 239.728
0.131250 236.854
0.134375 234.078
0.137500 231.394
0.140625 228.797
0.143750 226.282
0.150000 221.479
0.156250 216.952
0.162500 212.675
0.168750 208.626
0.175000 204.786
0.181250 201.137
0.187500 197.663
0.193750 194.349
0.200000 191.183
0.204688 188.900
0.209375 186.691
0.214063 184.552
0.218750 182.479
0.228125 178.516
0.237500 174.772
0.246875 171.230
0.256250 167.872
0.265625 164.683
0.275000 161.647
0.284375 158.754
0.293750 155.991
0.303125 153.349
0.312500 150.819
0.321875 148.392
0.331250 146.063
0.340625 143.823
0.350000 141.668
0.359375 139.591
0.368750 137.589
0.378125 135.656
0.387500 133.788
0.396875 131.982
0.406250 130.235
0.415625 128.542
0.425000 126.902
0.434375 125.311
0.443750 123.767
0.453125 122.267
0.462500 120.810
0.500000 115.382
0.531250 111.267
0.562500 107.464
0.593750 103.943
0.625000 100.671
0.656250 97.6175
0.687500 94.7602
0.718750 92.0781
0.750000 89.5540
0.812500 84.9214
0.875000 80.7739
0.937500 77.0243
1.00000 73.6040
1.06250 70.4764
1.12500 67.6031
1.18750 64.9523
1.25000 62.4977
1.31250 60.2172
1.37500 58.0922
1.43750 56.1066
1.50000 54.2467
1.56250 52.5006
1.62500 50.8579
1.68750 49.3096
1.75000 47.8476
1.81250 46.4649
1.87500 45.1551
1.93750 43.9127
2.00000 42.7348
2.09375 41.0736
2.18750 39.5263
2.28125 38.0840
2.37500 36.7364
2.46875 35.4748
2.56250 34.2914
2.65625 33.1793
2.75000 32.1325
2.84375 31.1456
2.93750 30.2139
3.03125 29.3329
3.12500 28.4989
3.21875 27.7083
3.31250 26.9580
3.40625 26.2452
3.50000 25.5672
3.59375 24.9217
3.68750 24.3087
3.87500 23.1635
4.06250 22.1157
4.25000 21.1559
4.43750 20.2740
4.62500 19.4616
4.81250 18.7111
5.00000 18.0158
5.15625 17.4747
5.31250 16.9659
5.46875 16.4864
5.62500 16.0338
5.78125 15.6062
5.93750 15.2017
6.09375 14.8185
6.25000 14.4551
6.40625 14.1101
6.56250 13.7823
6.71875 13.4704
6.87500 13.1735
7.03125 12.8905
7.18750 12.6205
7.34375 12.3628
7.50000 12.1172
7.81250 11.6570
8.12500 11.2341
8.43750 10.8451
8.75000 10.4863
9.06250 10.1546
9.37500 9.84705
9.68750 9.56138
10.0000 9.29544
10.3125 9.04736
10.6250 8.81549
10.9375 8.59840
11.2500 8.39477
11.5625 8.20347
11.8750 8.02346
12.1875 7.85382
12.5000 7.69373
12.8125 7.54243
13.1250 7.39926
13.4375 7.26361
13.7500 7.13493
14.0625 7.01271
14.3750 6.89650
14.6875 6.78590
15.0000 6.68051
15.3125 6.57999
15.6250 6.48402
15.9375 6.39231
16.2500 6.30460
16.5625 6.22063
16.8750 6.14018
17.1875 6.06304
17.5000 5.98915
18.1250 5.84984
18.7500 5.72083
19.3750 5.60115
20.0000 5.48986
20.4713 5.41146
20.9425 5.33652
21.4138 5.26474
21.8850 5.19712
22.3563 5.13252
22.8275 5.07036
23.2988 5.01137
23.7700 4.95506
24.2413 4.90070
24.7125 4.84875
25.1838 4.79916
25.6550 4.75118
26.1263 4.70504
26.5975 4.66095
27.0688 4.61824
27.5400 4.57696
28.0541 4.53386
28.5682 4.49233
29.0823 4.45218
29.5964 4.41347
30.1104 4.37633
30.6245 4.34048
31.1386 4.30579
31.6527 4.27232
32.1240 4.24280
32.5952 4.21438
33.0665 4.18706
33.5377 4.16092
34.0090 4.13607
34.2446 4.12420
34.4802 4.11272
34.7158 4.10167
34.9515 4.09113
35.1871 4.08111
35.4227 4.07166
35.6583 4.06291
35.8940 4.05500
36.1296 4.04803
36.3652 4.04216
36.6008 4.03761
36.8365 4.03464
36.9543 4.03385
37.0721 4.03358
37.1899 4.03391
37.3077 4.03488
37.4684 4.03739
37.6290 4.04148
37.7897 4.04742
37.9503 4.05547
38.1110 4.06607
38.1913 4.07251
38.2716 4.07981
38.3520 4.08804
38.4323 4.09729
38.5126 4.10767
38.5929 4.11928
38.7108 4.13885
38.8286 4.16187
38.9464 4.18894
39.0642 4.22077
39.1231 4.23875
39.1820 4.25827
39.2409 4.27947
39.2998 4.30252
39.3587 4.32759
39.4176 4.35489
39.4765 4.38465
39.5354 4.41711
39.6104 4.46279
39.6854 4.51396
39.7603 4.57144
39.8353 4.63620
39.9103 4.70946
39.9853 4.79260
40.0228 4.83839
40.0602 4.88728
40.0977 4.93957
40.1352 4.99553
40.1941 5.09168
40.2530 5.19917
40.3119 5.31972
40.3708 5.45537
40.4003 5.52964
40.4297 5.60864
40.4592 5.69277
40.4886 5.78247
40.5181 5.87826
40.5476 5.98060
40.5770 6.09011
40.6065 6.20744
40.6520 6.40592
40.6975 6.62799
40.7430 6.87739
40.7658 7.01372
40.7885 7.15859
40.8113 7.31285
40.8340 7.47724
40.8568 7.65267
40.8796 7.84012
40.9023 8.04070
40.9251 8.25566
40.9478 8.48638
40.9706 8.73432
41.0001 9.08398
41.0295 9.46989
41.0590 9.89734
41.0884 10.3725
41.1179 10.9028
41.1473 11.4968
41.1620 11.8212
41.1768 12.1654
41.1915 12.5319
41.2062 12.9218
41.2203 13.3185
41.2343 13.7410
41.2484 14.1915
41.2624 14.6724
41.2765 15.1873
41.2906 15.7391
41.3046 16.3317
41.3187 16.9688
41.3327 17.6563
41.3468 18.3994
41.3609 19.2045
41.3749 20.0787
41.3890 21.0319
41.4030 22.0740
41.4171 23.2171
41.4311 24.4747
41.4459 25.9357
41.4606 27.5659
41.4753 29.3937
41.4827 30.3915
41.4900 31.4520
41.4974 32.5821
41.5048 33.7848
41.5121 35.0680
41.5195 36.4388
41.5269 37.9070
41.5342 39.4772
41.5416 41.1605
41.5489 42.9670
41.5563 44.9104
41.5637 46.9974
41.5710 49.2465
41.5784 51.6655
41.5858 54.2759
41.5931 57.0866
41.6005 60.1183
41.6079 63.3890
41.6152 66.9229
41.6226 70.7309
41.6299 74.8389
41.6373 79.2692
41.6447 84.0516
41.6520 89.1970
41.6594 94.7361
41.6668 100.694
41.6721 105.310
41.6775 110.162
41.6828 115.278
41.6882 120.647
41.6925 125.223
41.6969 129.974
41.7012 134.915
41.7056 140.049
41.7099 145.381
41.7143 150.916
41.7186 156.657
41.7230 162.608
41.7273 168.785
41.7317 175.165
41.7360 181.762
41.7404 188.580
41.7447 195.618
41.7491 202.880
41.7578 218.071
41.7652 231.634
41.7725 245.807
41.7799 260.593
41.7872 275.973
41.7946 291.943
41.8020 308.425
41.8093 325.402
41.8167 342.826
41.8241 360.667
41.8314 378.815
41.8462 415.844
41.8609 453.284
41.8756 490.384
41.8903 526.395
41.9051 560.425
41.9198 591.663
41.9345 619.235
41.9458 637.385
41.9570 652.645
41.9683 664.752
41.9795 673.497
41.9898 678.397
42.0000 680.324
42.0123 678.676
42.0246 672.755
42.0369 662.693
42.0491 648.713
42.0614 631.115
42.0721 613.099
42.0828 592.885
42.0935 570.776
42.1043 547.090
42.1149 522.270
42.1256 496.556
42.1469 443.598
42.1721 381.071
42.1846 350.788
42.1972 321.600
42.2079 297.935
42.2185 275.384
42.2292 253.995
42.2399 233.874
42.2505 215.019
42.2612 197.481
42.2718 181.219
42.2825 166.238
42.2878 159.205
42.2931 152.473
42.2985 146.035
42.3038 139.897
42.3091 134.026
42.3144 128.426
42.3198 123.089
42.3251 118.016
42.3304 113.177
42.3358 108.576
42.3411 104.201
42.3464 100.051
42.3517 96.1022
42.3571 92.3531
42.3624 88.7948
42.3677 85.4247
42.3760 80.5429
42.3842 76.0500
42.3924 71.9106
42.4006 68.0968
42.4089 64.5782
42.4171 61.3385
42.4253 58.3502
42.4336 55.5918
42.4418 53.0404
42.4500 50.6839
42.4583 48.5022
42.4665 46.4797
42.4747 44.6003
42.4830 42.8555
42.4912 41.2313
42.4994 39.7171
42.5101 37.9037
42.5207 36.2415
42.5314 34.7111
42.5421 33.3011
42.5527 31.9962
42.5634 30.7878
42.5740 29.6641
42.5847 28.6186
42.5953 27.6421
42.6060 26.7298
42.6166 25.8741
42.6273 25.0716
42.6380 24.3163
42.6486 23.6055
42.6593 22.9349
42.6699 22.3014
42.6912 21.1337
42.7125 20.0834
42.7338 19.1342
42.7551 18.2730
42.7765 17.4885
42.7978 16.7716
42.8191 16.1142
42.8404 15.5101
42.8617 14.9527
42.8830 14.4375
42.9043 13.9601
42.9256 13.5168
42.9469 13.1042
42.9682 12.7195
42.9895 12.3602
43.0108 12.0240
43.0322 11.7088
43.0535 11.4129
43.0748 11.1346
43.0961 10.8727
43.1174 10.6257
43.1387 10.3925
43.1600 10.1721
43.1813 9.96363
43.2026 9.76602
43.2239 9.57860
43.2665 9.23156
43.3092 8.91751
43.3518 8.63235
43.3944 8.37240
43.4370 8.13475
43.4796 7.91684
43.5222 7.71652
43.5552 7.57248
43.5881 7.43706
43.6210 7.30952
43.6540 7.18924
43.6869 7.07564
43.7198 6.96822
43.7528 6.86651
43.7857 6.77009
43.8516 6.59162
43.9174 6.43020
43.9833 6.28365
44.0491 6.15014
44.0918 6.06996
44.1344 5.99420
44.1770 5.92254
44.2196 5.85469
44.2622 5.79033
44.3048 5.72924
44.3901 5.61596
44.4753 5.51322
44.5605 5.41970
44.6458 5.33425
44.7310 5.25592
44.7891 5.20617
44.8472 5.15911
44.9054 5.11455
44.9635 5.07231
45.0216 5.03221
45.0797 4.99413
45.1959 4.92339
45.3122 4.85902
45.4284 4.80015
45.5446 4.74616
45.6608 4.69649
45.7461 4.66253
45.8313 4.63045
45.9165 4.60011
46.0018 4.57136
46.0870 4.54409
46.1722 4.51818
46.3427 4.47004
46.5132 4.42625
46.6836 4.38621
46.8541 4.34946
47.0246 4.31558
47.1486 4.29254
47.2725 4.27073
47.3965 4.25003
47.5205 4.23037
47.6445 4.21168
47.7684 4.19389
48.0164 4.16063
48.2643 4.13005
48.5123 4.10187
48.7602 4.07578
49.0082 4.05151
49.2562 4.02886
49.5041 4.00762
49.7521 3.98766
50.0000 3.96883
50.2219 3.95285
50.4438 3.93759
50.6657 3.92299
50.8876 3.90902
51.3314 3.88271
51.7752 3.85833
52.2190 3.83559
52.6627 3.81428
53.1065 3.79430
53.5503 3.77527
54.2160 3.74852
54.8817 3.72358
55.5474 3.70018
56.2131 3.67809
56.8788 3.65713
57.5444 3.63719
58.2101 3.61815
58.8758 3.59995
59.3566 3.58730
59.8373 3.57506
60.3181 3.56316
60.7989 3.55173
61.2797 3.54075
61.5200 3.53545
61.7604 3.53028
62.0008 3.52527
62.2412 3.52043
62.4816 3.51578
62.7220 3.51134
62.9624 3.50715
63.2027 3.50325
63.4431 3.49968
63.6835 3.49653
63.9239 3.49389
64.1643 3.49185
64.2845 3.49110
64.4047 3.49057
64.5249 3.49027
64.6450 3.49023
64.8022 3.49064
64.9594 3.49165
65.1166 3.49338
65.2738 3.49595
65.4309 3.49953
65.5095 3.50176
65.5881 3.50433
65.6667 3.50727
65.7453 3.51064
65.8239 3.51447
65.9025 3.51881
66.0042 3.52530
66.1059 3.53291
66.2076 3.54181
66.3093 3.55223
66.4110 3.56442
66.4618 3.57129
66.5127 3.57873
66.5635 3.58680
66.6144 3.59555
66.6652 3.60505
66.7161 3.61538
66.7900 3.63204
66.8640 3.65091
66.9380 3.67234
67.0119 3.69674
67.0489 3.71022
67.0859 3.72464
67.1229 3.74010
67.1599 3.75667
67.1968 3.77447
67.2338 3.79361
67.2708 3.81422
67.3078 3.83643
67.3586 3.86989
67.4095 3.90717
67.4603 3.94882
67.5112 3.99553
67.5620 4.04809
67.5875 4.07686
67.6129 4.10747
67.6383 4.14008
67.6637 4.17485
67.6892 4.21200
67.7146 4.25169
67.7585 4.32703
67.7805 4.36827
67.8024 4.41216
67.8244 4.45893
67.8464 4.50884
67.8683 4.56216
67.8903 4.61918
67.9122 4.68031
67.9342 4.74593
67.9561 4.81649
67.9781 4.89249
68.0001 4.97452
68.0220 5.06324
68.0440 5.15942
68.0659 5.26387
68.0914 5.39665
68.1168 5.54380
68.1422 5.70769
68.1676 5.89098
68.1804 5.99105
68.1931 6.09725
68.2058 6.21023
68.2185 6.33063
68.2312 6.45927
68.2439 6.59677
68.2566 6.74416
68.2693 6.90250
68.2821 7.07313
68.2948 7.25719
68.3075 7.45638
68.3202 7.67256
68.3329 7.90802
68.3456 8.16481
68.3583 8.44591
68.3710 8.75453
68.3838 9.09464
68.3965 9.46994
68.4092 9.88552
68.4219 10.3469
68.4346 10.8608
68.4473 11.4335
68.4600 12.0734
68.4664 12.4216
68.4727 12.7895
68.4803 13.2531
68.4878 13.7483
68.4953 14.2782
68.5028 14.8453
68.5103 15.4530
68.5178 16.1025
68.5253 16.7975
68.5328 17.5410
68.5404 18.3371
68.5479 19.1872
68.5554 20.0955
68.5629 21.0655
68.5704 22.1022
68.5779 23.2064
68.5854 24.3830
68.5929 25.6357
68.5993 26.7588
68.6057 27.9413
68.6120 29.1854
68.6184 30.4910
68.6247 31.8644
68.6311 33.3032
68.6374 34.8139
68.6438 36.3934
68.6501 38.0485
68.6565 39.7782
68.6692 43.4637
68.6819 47.4608
68.6946 51.7746
68.7062 55.9736
68.7178 60.4321
68.7293 65.1433
68.7409 70.0920
68.7570 77.4011
68.7732 85.0975
68.7894 93.1069
68.8056 101.332
68.8183 107.887
68.8310 114.446
68.8564 127.332
68.8691 133.524
68.8819 139.444
68.8946 145.023
68.9073 150.190
68.9252 156.647
68.9431 161.973
68.9543 164.654
68.9655 166.806
68.9767 168.406
68.9878 169.438
69.0000 169.901
69.0163 169.436
69.0284 168.283
69.0406 166.457
69.0528 163.985
69.0650 160.903
69.0830 155.307
69.1011 148.624
69.1191 141.040
69.1372 132.755
69.1536 124.788
69.1700 116.565
69.2028 99.9293
69.2208 90.9711
69.2388 82.3320
69.2569 74.1246
69.2659 70.2105
69.2749 66.4383
69.2848 62.4833
69.2946 58.7064
69.3044 55.1119
69.3143 51.7022
69.3241 48.4779
69.3340 45.4380
69.3438 42.5802
69.3536 39.9006
69.3627 37.5970
69.3717 35.4350
69.3807 33.4097
69.3897 31.5159
69.3987 29.7480
69.4078 28.1001
69.4168 26.5662
69.4258 25.1403
69.4348 23.8164
69.4438 22.5882
69.4529 21.4499
69.4619 20.3957
69.4709 19.4199
69.4799 18.5170
69.4889 17.6819
69.4979 16.9103
69.5070 16.1959
69.5160 15.5350
69.5250 14.9235
69.5340 14.3573
69.5430 13.8330
69.5521 13.3469
69.5611 12.8960
69.5701 12.4773
69.5791 12.0882
69.5881 11.7260
69.5972 11.3886
69.6062 11.0738
69.6152 10.7798
69.6242 10.5048
69.6332 10.2471
69.6423 10.0054
69.6554 9.67968
69.6685 9.38129
69.6816 9.10715
69.6947 8.85453
69.7079 8.62107
69.7210 8.40470
69.7341 8.20365
69.7472 8.01650
69.7603 7.84161
69.7735 7.67794
69.7866 7.52444
69.7997 7.38020
69.8128 7.24442
69.8259 7.11637
69.8391 6.99542
69.8522 6.88110
69.8702 6.73353
69.8882 6.59620
69.9063 6.46812
69.9243 6.34841
69.9424 6.23630
69.9604 6.13112
69.9784 6.03226
69.9965 5.93926
70.0145 5.85154
70.0326 5.76871
70.0506 5.69042
70.0686 5.61631
70.1047 5.47944
70.1408 5.35599
70.1621 5.28859
70.1834 5.22493
70.2047 5.16472
70.2261 5.10771
70.2687 5.00237
70.3113 4.90731
70.3540 4.82113
70.3966 4.74274
70.4393 4.67117
70.4819 4.60564
70.5180 4.55436
70.5540 4.50654
70.5901 4.46185
70.6262 4.42002
70.6623 4.38079
70.6984 4.34394
70.7344 4.30927
70.7705 4.27662
70.8066 4.24580
70.8427 4.21669
70.8787 4.18916
70.9148 4.16308
70.9870 4.11487
71.0591 4.07133
71.1313 4.03183
71.2034 3.99587
71.2756 3.96300
71.3477 3.93286
71.4199 3.90513
71.4921 3.87954
71.5642 3.85587
71.6364 3.83392
71.7052 3.81440
71.7741 3.79614
71.8430 3.77901
71.9119 3.76292
71.9808 3.74778
72.0496 3.73350
72.1185 3.72001
72.1874 3.70726
72.2563 3.69518
72.3251 3.68371
72.4629 3.66246
72.6006 3.64317
72.7384 3.62557
72.8237 3.61543
72.9089 3.60580
73.0795 3.58793
73.2500 3.57169
73.4206 3.55683
73.5911 3.54320
73.7617 3.53061
73.9322 3.51892
74.1028 3.50801
74.2471 3.49933
74.3914 3.49110
74.5357 3.48329
74.6800 3.47585
74.8243 3.46875
74.9686 3.46196
75.2572 3.44921
75.5459 3.43742
75.8345 3.42645
76.1231 3.41617
76.4117 3.40650
76.6872 3.39779
76.9627 3.38947
77.2382 3.38151
77.5137 3.37386
77.7892 3.36651
78.0647 3.35943
78.6157 3.34592
79.1668 3.33317
79.7178 3.32105
80.2688 3.30943
80.8198 3.29825
81.4495 3.28590
82.0792 3.27393
82.6564 3.26324
83.2337 3.25278
83.8109 3.24250
84.3882 3.23239
84.9654 3.22243
85.5427 3.21260
85.8313 3.20774
86.1199 3.20291
86.4085 3.19811
86.6971 3.19336
87.0382 3.18780
87.3793 3.18230
87.7204 3.17689
88.0615 3.17159
88.4026 3.16643
88.7437 3.16144
88.9143 3.15902
89.0848 3.15667
89.2554 3.15439
89.4259 3.15219
89.6752 3.14915
89.9244 3.14637
90.1737 3.14390
90.4230 3.14182
90.5476 3.14095
90.6722 3.14023
90.7969 3.13965
90.9215 3.13925
91.0461 3.13904
91.1708 3.13905
91.2954 3.13931
91.4200 3.13986
91.5643 3.14091
91.7087 3.14247
91.8530 3.14463
91.9973 3.14749
92.1416 3.15118
92.2859 3.15587
92.3581 3.15864
92.4302 3.16173
92.5024 3.16518
92.5745 3.16902
92.6926 3.17624
92.8107 3.18481
92.9287 3.19496
92.9878 3.20073
93.0468 3.20700
93.1058 3.21383
93.1649 3.22127
93.2239 3.22939
93.2830 3.23824
93.3420 3.24790
93.4010 3.25847
93.4601 3.27003
93.5191 3.28270
93.5913 3.29987
93.6634 3.31913
93.7356 3.34079
93.8077 3.36520
93.8799 3.39279
93.9520 3.42407
94.0242 3.45966
94.0603 3.47930
94.0963 3.50029
94.1619 3.54239
94.1947 3.56553
94.2275 3.59024
94.2603 3.61663
94.2931 3.64486
94.3259 3.67509
94.3587 3.70750
94.3915 3.74229
94.4243 3.77970
94.4571 3.81998
94.4899 3.86341
94.5227 3.91033
94.5555 3.96110
94.5883 4.01614
94.6211 4.07592
94.6572 4.14783
94.6933 4.22701
94.7293 4.31443
94.7654 4.41124
94.8015 4.51888
94.8376 4.63899
94.8737 4.77358
94.8917 4.84706
94.9097 4.92507
94.9278 5.00810
94.9458 5.09656
94.9638 5.19094
94.9819 5.29182
94.9999 5.39982
95.0180 5.51569
95.0360 5.64025
95.0540 5.77439
95.0721 5.91936
95.0901 6.07639
95.1082 6.24698
95.1262 6.43290
95.1442 6.63625
95.1623 6.85949
95.1803 7.10557
95.1983 7.37785
95.2106 7.58082
95.2229 7.79951
95.2352 8.03565
95.2475 8.29123
95.2598 8.56844
95.2721 8.86980
95.2844 9.19811
95.2967 9.55653
95.3090 9.94861
95.3213 10.3783
95.3336 10.8501
95.3459 11.3689
95.3582 11.9401
95.3705 12.5698
95.3828 13.2646
95.3951 14.0313
95.4042 14.6446
95.4132 15.3045
95.4222 16.0145
95.4312 16.7785
95.4402 17.6003
95.4493 18.4842
95.4583 19.4345
95.4673 20.4546
95.4763 21.5514
95.4853 22.7286
95.4943 23.9912
95.5034 25.3443
95.5124 26.7931
95.5214 28.3427
95.5304 29.9984
95.5394 31.7634
95.5526 34.5426
95.5657 37.5834
95.5788 40.9003
95.5919 44.5066
95.6050 48.4139
95.6182 52.6317
95.6313 57.1671
95.6444 62.0241
95.6575 67.2033
95.6706 72.7014
95.6838 78.5108
95.6969 84.6193
95.7149 93.4742
95.7330 102.800
95.7510 112.516
95.7690 122.517
95.7871 132.696
95.8051 142.911
95.8412 162.839
95.8592 172.228
95.8773 181.008
95.8953 189.011
95.9133 196.081
95.9336 202.742
95.9438 205.503
95.9539 207.860
95.9655 210.024
95.9770 211.627
95.9885 212.657
96.0000 213.104
96.0126 212.923
96.0262 211.944
96.0398 210.163
96.0534 207.605
96.0670 204.304
96.0776 201.252
96.0881 197.802
96.1093 189.802
96.1304 180.532
96.1515 170.251
96.1784 156.114
96.2053 141.320
96.2475 117.953
96.2687 106.676
96.2898 95.8984
96.3003 90.7330
96.3109 85.7423
96.3215 80.9320
96.3320 76.3103
96.3426 71.8794
96.3532 67.6521
96.3637 63.6267
96.3743 59.8041
96.3829 56.8235
96.3916 53.9809
96.4002 51.2709
96.4088 48.6916
96.4175 46.2375
96.4261 43.9115
96.4348 41.7073
96.4434 39.6213
96.4521 37.6475
96.4607 35.7863
96.4693 34.0314
96.4780 32.3783
96.4866 30.8227
96.4953 29.3602
96.5039 27.9865
96.5125 26.6970
96.5231 25.2279
96.5337 23.8718
96.5442 22.6200
96.5548 21.4649
96.5654 20.3987
96.5759 19.4166
96.5865 18.5112
96.5970 17.6766
96.6076 16.9063
96.6182 16.1965
96.6287 15.5414
96.6393 14.9365
96.6499 14.3775
96.6604 13.8604
96.6710 13.3816
96.6815 12.9378
96.6931 12.4895
96.7046 12.0759
96.7161 11.6934
96.7276 11.3390
96.7392 11.0097
96.7507 10.7037
96.7622 10.4186
96.7737 10.1525
96.7852 9.90333
96.7968 9.67005
96.8083 9.45104
96.8198 9.24505
96.8313 9.05096
96.8428 8.86779
96.8659 8.53068
96.8870 8.25155
96.9081 7.99729
96.9293 7.76447
96.9504 7.55066
96.9715 7.35341
96.9926 7.17105
97.0138 7.00180
97.0349 6.84445
97.0560 6.69768
97.0771 6.56059
97.0983 6.43217
97.1194 6.31174
97.1405 6.19852
97.1616 6.09199
97.1828 5.99155
97.2039 5.89672
97.2250 5.80702
97.2461 5.72213
97.2884 5.56529
97.3306 5.42372
97.3729 5.29545
97.4151 5.17872
97.4574 5.07217
97.4996 4.97455
97.5418 4.88488
97.5764 4.81677
97.6110 4.75295
97.6456 4.69307
97.6801 4.63679
97.7147 4.58379
97.7493 4.53381
97.7838 4.48663
97.8184 4.44203
97.8530 4.39979
97.8875 4.35976
97.9567 4.28569
98.0258 4.21870
98.0949 4.15787
98.1372 4.12339
98.1794 4.09077
98.2217 4.05987
98.2639 4.03057
98.3484 3.97629
98.4329 3.92715
98.5174 3.88246
98.6019 3.84168
98.6864 3.80433
98.7709 3.77001
98.8323 3.74675
98.8938 3.72481
98.9552 3.70407
99.0167 3.68444
99.0781 3.66584
99.1396 3.64819
99.2010 3.63141
99.2625 3.61544
99.3854 3.58571
99.5083 3.55859
99.6312 3.53377
99.7541 3.51096
99.8770 3.48993
99.9999 3.46874
100.000 3.46871
100.000 3.46869
100.001 3.46863
100.001 3.46859
100.002 3.46848
100.003 3.46827
100.006 3.46785
100.011 3.46701
100.023 3.46534
100.045 3.46204
100.090 3.45556
100.179 3.44309
100.269 3.43124
100.359 3.41997
100.538 3.39897
100.717 3.37981
100.896 3.36224
101.075 3.34605
101.255 3.33107
101.434 3.31716
101.613 3.30420
101.792 3.29207
101.971 3.28069
102.150 3.26998
102.330 3.25987
102.509 3.25029
102.688 3.24121
102.867 3.23258
103.046 3.22434
103.226 3.21647
103.405 3.20893
103.584 3.20170
103.942 3.18805
104.301 3.17535
104.659 3.16346
105.017 3.15225
105.376 3.14164
105.734 3.13155
106.093 3.12190
106.451 3.11264
106.809 3.10372
107.168 3.09510
107.526 3.08674
107.884 3.07860
108.243 3.07067
108.601 3.06292
109.318 3.04787
110.035 3.03330
110.751 3.01908
111.468 3.00515
112.185 2.99140
112.543 2.98458
112.902 2.97779
113.260 2.97102
113.618 2.96426
113.977 2.95753
114.335 2.95081
114.694 2.94410
115.052 2.93742
115.410 2.93077
115.769 2.92416
116.127 2.91761
116.485 2.91115
116.844 2.90482
117.023 2.90173
117.202 2.89869
117.381 2.89573
117.561 2.89285
117.740 2.89007
117.919 2.88742
118.098 2.88492
118.277 2.88261
118.457 2.88052
118.636 2.87871
118.815 2.87723
118.994 2.87618
119.173 2.87565
119.263 2.87562
119.352 2.87577
119.442 2.87612
119.532 2.87670
119.621 2.87755
119.711 2.87868
119.800 2.88015
119.890 2.88199
119.980 2.88427
120.069 2.88703
120.159 2.89035
120.248 2.89432
120.338 2.89904
120.428 2.90462
120.517 2.91121
120.607 2.91897
120.696 2.92812
120.786 2.93891
120.831 2.94501
120.876 2.95164
120.920 2.95885
120.965 2.96670
121.010 2.97524
121.055 2.98455
121.100 2.99471
121.144 3.00581
121.189 3.01794
121.234 3.03122
121.279 3.04578
121.324 3.06177
121.368 3.07935
121.413 3.09873
121.458 3.12011
121.503 3.14371
121.547 3.16993
121.592 3.19907
121.637 3.23153
121.682 3.26780
121.727 3.30845
121.771 3.35416
121.816 3.40573
121.839 3.43401
121.861 3.46414
121.883 3.49628
121.906 3.53058
121.928 3.56726
121.951 3.60650
121.973 3.64856
121.995 3.69368
122.018 3.74216
122.040 3.79433
122.063 3.85054
122.085 3.91122
122.107 3.97683
122.130 4.04788
122.152 4.12498
122.175 4.20880
122.197 4.30012
122.219 4.39936
122.242 4.50842
122.264 4.62806
122.287 4.75965
122.309 4.90477
122.331 5.06528
122.354 5.24336
122.376 5.44161
122.399 5.66309
122.410 5.78365
122.421 5.91146
122.432 6.04707
122.443 6.19113
122.455 6.34433
122.466 6.50744
122.477 6.68132
122.488 6.86691
122.499 7.06525
122.511 7.27753
122.522 7.50502
122.533 7.74921
122.544 8.01171
122.555 8.29436
122.567 8.59923
122.578 8.92865
122.589 9.28527
122.600 9.67208
122.611 10.0925
122.623 10.5505
122.634 11.0505
122.645 11.5978
122.656 12.1982
122.667 12.8587
122.679 13.5875
122.690 14.3939
122.701 15.2892
122.712 16.2864
122.718 16.8281
122.723 17.4013
122.729 18.0084
122.735 18.6523
122.740 19.3357
122.746 20.0619
122.751 20.8344
122.757 21.6571
122.763 22.5343
122.768 23.4708
122.774 24.4717
122.779 25.5430
122.785 26.6910
122.791 27.9230
122.796 29.2471
122.802 30.6721
122.807 32.2082
122.813 33.8665
122.819 35.6598
122.824 37.6021
122.830 39.7094
122.835 41.9998
122.841 44.4935
122.847 47.2136
122.852 50.1860
122.858 53.4402
122.863 57.0096
122.869 60.9317
122.875 65.2494
122.880 70.0107
122.886 75.2698
122.889 78.1048
122.891 81.0875
122.894 84.2265
122.897 87.5310
122.900 91.0105
122.903 94.6748
122.905 98.5342
122.908 102.599
122.911 106.881
122.914 111.390
122.917 116.138
122.919 121.135
122.922 126.393
122.925 131.921
122.928 137.729
122.931 143.824
122.933 150.214
122.936 156.659
122.938 161.612
122.940 166.719
122.942 171.978
122.944 177.385
122.946 182.937
122.948 188.629
122.950 194.453
122.952 200.400
122.954 206.460
122.956 212.618
122.960 225.163
122.964 237.876
122.968 250.551
122.972 262.934
122.976 274.732
122.980 285.615
122.984 295.238
122.988 303.260
122.992 309.370
122.996 313.318
123.000 314.939
123.002 314.833
123.004 314.119
123.008 310.836
123.012 305.254
123.016 297.839
123.020 288.537
123.024 278.145
123.029 266.503
123.033 254.510
123.037 241.877
123.041 229.165
123.045 216.596
123.049 204.633
123.053 192.803
123.057 181.765
123.061 171.021
123.065 161.124
123.068 153.400
123.072 146.073
123.075 139.135
123.078 132.576
123.082 126.382
123.085 120.538
123.088 115.028
123.091 109.987
123.095 105.085
123.098 100.465
123.101 96.1129
123.104 92.1321
123.108 88.2590
123.111 84.6071
123.114 81.1625
123.118 78.0076
123.121 74.9333
123.124 72.0294
123.127 69.2848
123.131 66.7658
123.134 64.3059
123.137 61.9768
123.141 59.7703
123.144 57.7404
123.150 53.8670
123.157 50.4234
123.163 47.2592
123.170 44.4321
123.177 41.8217
123.183 39.4783
123.190 37.3043
123.196 35.3439
123.203 33.5173
123.209 31.8631
123.216 30.3155
123.222 28.9084
123.229 27.5870
123.235 26.3812
123.242 25.2448
123.249 24.2042
123.255 23.2203
123.262 22.3166
123.268 21.4595
123.275 20.6700
123.281 19.9190
123.288 19.2254
123.294 18.5639
123.301 17.9513
123.308 17.3658
123.314 16.8222
123.321 16.3015
123.327 15.8170
123.334 15.3519
123.340 14.9183
123.353 14.1116
123.366 13.3848
123.380 12.7276
123.393 12.1315
123.406 11.5891
123.419 11.0942
123.432 10.6413
123.445 10.2258
123.458 9.84370
123.471 9.49146
123.484 9.16604
123.497 8.86477
123.511 8.58531
123.524 8.32557
123.537 8.08374
123.550 7.85819
123.563 7.64747
123.576 7.45031
123.589 7.26554
123.602 7.09215
123.615 6.92920
123.628 6.77587
123.642 6.63140
123.655 6.49511
123.668 6.36638
123.681 6.24467
123.694 6.12946
123.720 5.91674
123.746 5.72498
123.773 5.55148
123.799 5.39395
123.825 5.25046
123.851 5.11934
123.877 4.99920
123.904 4.88881
123.930 4.78676
123.956 4.69289
123.982 4.60602
124.008 4.52545
124.035 4.45057
124.061 4.38083
124.087 4.31578
124.113 4.25497
124.139 4.19805
124.166 4.14467
124.192 4.09454
124.218 4.04739
124.244 4.00299
124.270 3.96110
124.297 3.92155
124.323 3.88415
124.349 3.84874
124.375 3.81519
124.428 3.75310
124.480 3.69696
124.532 3.64601
124.585 3.59960
124.637 3.55716
124.690 3.51825
124.742 3.48245
124.795 3.44936
124.847 3.41882
124.899 3.39048
124.952 3.36414
125.004 3.33960
125.057 3.31668
125.109 3.29523
125.161 3.27511
125.214 3.25621
125.266 3.23842
125.319 3.22165
125.371 3.20581
125.423 3.19083
125.476 3.17664
125.581 3.15037
125.685 3.12658
125.790 3.10494
125.895 3.08516
126.000 3.06700
126.105 3.05024
126.209 3.03472
126.314 3.02029
126.419 3.00683
126.524 2.99422
126.629 2.98239
126.734 2.97125
126.838 2.96073
126.943 2.95077
127.048 2.94131
127.258 2.92371
127.467 2.90762
127.677 2.89279
127.886 2.87903
128.096 2.86615
128.306 2.85403
128.515 2.84257
128.725 2.83166
128.935 2.82124
129.144 2.81123
129.354 2.80158
129.773 2.78318
130.192 2.76573
130.612 2.74901
131.031 2.73282
131.450 2.71705
131.869 2.70156
132.289 2.68627
132.708 2.67111
133.127 2.65602
133.546 2.64095
133.966 2.62584
134.385 2.61068
134.804 2.59543
135.223 2.58007
135.643 2.56458
136.062 2.54896
136.481 2.53320
136.900 2.51732
137.320 2.50132
137.739 2.48524
138.158 2.46913
138.577 2.45304
138.997 2.43707
139.206 2.42917
139.416 2.42134
139.625 2.41361
139.835 2.40601
140.045 2.39856
140.254 2.39130
140.464 2.38427
140.674 2.37752
140.883 2.37108
141.093 2.36504
141.302 2.35945
141.512 2.35441
141.722 2.34999
141.931 2.34633
142.141 2.34355
142.351 2.34179
142.560 2.34125
142.770 2.34213
142.979 2.34469
143.189 2.34921
143.399 2.35607
143.608 2.36566
143.818 2.37851
144.028 2.39523
144.237 2.41655
144.447 2.44338
144.552 2.45920
144.656 2.47683
144.761 2.49644
144.866 2.51825
144.971 2.54249
145.076 2.56937
145.181 2.59919
145.285 2.63227
145.390 2.66896
145.495 2.70965
145.600 2.75480
145.705 2.80492
145.809 2.86065
145.914 2.92254
146.019 2.99140
146.124 3.06811
146.229 3.15367
146.333 3.24922
146.438 3.35612
146.543 3.47593
146.648 3.61059
146.753 3.76201
146.858 3.93283
146.962 4.12604
147.067 4.34520
147.172 4.59459
147.224 4.73219
147.277 4.87936
147.329 5.03691
147.382 5.20575
147.434 5.38724
147.486 5.58180
147.539 5.79099
147.591 6.01619
147.644 6.25893
147.696 6.52094
147.748 6.80413
147.801 7.11068
147.853 7.44303
147.906 7.80393
147.958 8.19652
148.010 8.62436
148.063 9.09150
148.115 9.60260
148.168 10.1630
148.194 10.4636
148.220 10.7788
148.246 11.1110
148.273 11.4586
148.299 11.8239
148.325 12.2080
148.351 12.6123
148.377 13.0380
148.404 13.4866
148.430 13.9598
148.456 14.4592
148.482 14.9868
148.508 15.5446
148.535 16.1349
148.561 16.7600
148.587 17.4228
148.613 18.1262
148.639 18.8733
148.666 19.6678
148.692 20.5135
148.718 21.4148
148.744 22.3766
148.770 23.4040
148.797 24.5031
148.823 25.6803
148.849 26.9430
148.875 28.2994
148.901 29.7586
148.928 31.3309
148.954 33.0280
148.980 34.8630
149.006 36.8507
149.032 39.0080
149.059 41.3542
149.085 43.9214
149.111 46.7156
149.137 49.7751
149.150 51.4147
149.163 53.1336
149.177 54.9371
149.190 56.8304
149.203 58.8196
149.216 60.9110
149.229 63.1116
149.242 65.4289
149.255 67.8711
149.268 70.4472
149.281 73.1667
149.294 76.0403
149.308 79.0795
149.321 82.2971
149.334 85.7067
149.347 89.3238
149.360 93.1649
149.373 97.2485
149.386 101.595
149.399 106.227
149.412 111.168
149.425 116.448
149.439 122.095
149.452 128.146
149.465 134.636
149.478 141.610
149.491 149.115
149.504 157.205
149.517 165.941
149.530 175.390
149.543 185.630
149.556 196.750
149.570 208.850
149.583 222.044
149.596 236.465
149.609 252.262
149.622 269.612
149.635 288.715
149.648 309.806
149.655 321.270
149.661 333.159
149.668 345.881
149.674 359.095
149.681 373.256
149.687 387.988
149.694 403.802
149.701 420.282
149.707 438.003
149.714 456.502
149.720 476.429
149.727 497.269
149.733 519.760
149.740 543.325
149.746 568.806
149.753 595.556
149.760 624.538
149.766 655.022
149.773 688.116
149.779 722.995
149.786 760.936
149.792 801.002
149.799 844.669
149.805 890.871
149.812 941.317
149.818 994.784
149.825 1053.26
149.832 1115.32
149.838 1183.29
149.845 1255.50
149.851 1334.63
149.858 1418.73
149.864 1510.88
149.871 1608.75
149.877 1715.82
149.884 1829.29
149.891 1953.01
149.897 2083.52
149.904 2222.74
149.910 2368.27
149.916 2524.32
149.923 2685.41
149.929 2855.47
149.936 3027.66
149.949 3376.92
149.955 3550.38
149.961 3713.37
149.968 3866.32
149.974 3999.68
149.981 4112.77
149.987 4197.75
149.994 4253.07
150.000 4276.42
150.007 4266.50
150.013 4224.22
150.019 4150.36
150.026 4050.50
150.032 3925.76
150.039 3784.63
150.045 3630.06
150.052 3466.55
150.064 3125.76
150.077 2790.59
150.084 2629.32
150.090 2477.26
150.097 2332.65
150.103 2195.90
150.110 2049.71
150.118 1913.86
150.125 1788.03
150.132 1671.78
150.140 1564.53
150.147 1465.69
150.154 1374.65
150.161 1291.90
150.169 1214.56
150.176 1143.27
150.183 1077.53
150.190 1017.64
150.198 961.503
150.205 909.585
150.212 861.513
150.220 817.539
150.227 776.140
150.234 737.673
150.241 701.886
150.249 668.552
150.256 637.466
150.263 608.441
150.271 581.308
150.278 556.251
150.285 532.436
150.292 510.097
150.300 489.119
150.307 469.660
150.314 451.085
150.322 433.587
150.329 417.085
150.336 401.716
150.343 386.987
150.351 373.057
150.358 359.871
150.365 347.378
150.380 324.287
150.394 303.590
150.409 284.722
150.423 267.705
150.438 252.102
150.453 237.951
150.467 224.906
150.482 213.017
150.496 202.005
150.511 191.922
150.525 182.543
150.540 173.921
150.554 165.868
150.569 158.437
150.584 151.472
150.598 144.979
150.613 138.918
150.627 133.287
150.642 127.976
150.656 123.029
150.671 118.349
150.685 113.978
150.700 109.834
150.715 105.953
150.729 102.264
150.744 98.8025
150.758 95.5049
150.773 92.4035
150.802 86.6535
150.831 81.4499
150.860 76.7563
150.889 72.4933
150.918 68.6091
150.947 65.0597
150.977 61.8072
151.006 58.8190
151.035 56.0669
151.064 53.5178
151.093 51.1678
151.122 48.9890
151.151 46.9648
151.180 45.0746
151.210 43.3183
151.239 41.6779
151.268 40.1431
151.297 38.7002
151.326 37.3508
151.355 36.0828
151.384 34.8894
151.413 33.7648
151.442 32.7038
151.472 31.7015
151.501 30.7536
151.530 29.8531
151.559 29.0025
151.617 27.4291
151.675 26.0070
151.734 24.7171
151.792 23.5412
151.850 22.4693
151.908 21.4876
151.966 20.5861
152.025 19.7545
152.083 18.9882
152.141 18.2779
152.199 17.6204
152.258 17.0083
152.316 16.4393
152.374 15.9084
152.432 15.4123
152.491 14.9469
152.549 14.5113
152.607 14.1021
152.665 13.7172
152.724 13.3540
152.782 13.0119
152.840 12.6889
152.898 12.3833
152.956 12.0935
153.015 11.8193
153.073 11.5586
153.131 11.3114
153.248 10.8520
153.364 10.4354
153.481 10.0554
153.597 9.70824
153.713 9.38959
153.830 9.09671
153.946 8.82632
154.063 8.57625
154.179 8.34442
154.296 8.12916
154.412 7.92851
154.529 7.74141
154.645 7.56630
154.762 7.40240
154.878 7.24843
154.995 7.10370
155.111 6.96741
155.227 6.83900
155.344 6.71761
155.460 6.60291
155.577 6.49418
155.693 6.39116
155.810 6.29327
155.926 6.20022
156.043 6.11167
156.159 6.02738
156.276 5.94692
156.392 5.87018
156.625 5.72662
156.858 5.59505
157.091 5.47403
157.324 5.36236
157.557 5.25900
157.790 5.16302
158.022 5.07372
158.255 4.99040
158.488 4.91245
158.721 4.83935
158.954 4.77069
159.187 4.70604
159.420 4.64505
159.653 4.58737
159.886 4.53278
160.119 4.48098
160.352 4.43176
160.585 4.38490
160.818 4.34024
161.050 4.29761
161.283 4.25684
161.516 4.21778
161.749 4.18035
161.982 4.14441
162.215 4.10986
162.681 4.04451
163.147 3.98367
163.613 3.92672
164.078 3.87319
164.544 3.82264
165.010 3.77470
165.476 3.72902
165.942 3.68534
166.408 3.64339
166.873 3.60294
167.339 3.56378
167.805 3.52573
168.271 3.48862
168.737 3.45231
169.203 3.41664
169.669 3.38151
169.902 3.36411
170.134 3.34681
170.367 3.32960
170.600 3.31248
170.833 3.29542
171.066 3.27844
171.299 3.26154
171.532 3.24471
171.765 3.22797
171.998 3.21133
172.231 3.19481
172.464 3.17844
172.697 3.16224
172.929 3.14628
173.162 3.13063
173.395 3.11536
173.628 3.10057
173.861 3.08643
174.094 3.07311
174.211 3.06682
174.327 3.06084
174.443 3.05519
174.560 3.04992
174.676 3.04508
174.793 3.04075
174.909 3.03698
175.026 3.03385
175.142 3.03145
175.259 3.02989
175.375 3.02928
175.492 3.02976
175.608 3.03150
175.725 3.03467
175.841 3.03950
175.957 3.04624
176.074 3.05519
176.190 3.06668
176.307 3.08115
176.423 3.09908
176.540 3.12106
176.656 3.14777
176.773 3.18009
176.889 3.21900
176.947 3.24134
177.006 3.26579
177.064 3.29258
177.122 3.32194
177.180 3.35416
177.239 3.38941
177.297 3.42812
177.355 3.47051
177.413 3.51711
177.472 3.56819
177.530 3.62434
177.588 3.68609
177.646 3.75420
177.704 3.82916
177.763 3.91190
177.821 4.00334
177.879 4.10475
177.937 4.21700
177.996 4.34169
178.054 4.48046
178.112 4.63553
178.170 4.80860
178.229 5.00293
178.287 5.22097
178.345 5.46718
178.403 5.74514
178.432 5.89778
178.461 6.06052
178.491 6.23420
178.520 6.41974
178.549 6.61886
178.578 6.83131
178.607 7.05902
178.636 7.30336
178.665 7.56587
178.694 7.84829
178.723 8.15252
178.753 8.48073
178.782 8.83661
178.811 9.22045
178.840 9.63651
178.869 10.0883
178.898 10.5797
178.927 11.1154
178.956 11.7004
178.985 12.3407
179.015 13.0457
179.029 13.4241
179.044 13.8184
179.058 14.2353
179.073 14.6703
179.087 15.1309
179.102 15.6122
179.117 16.1224
179.131 16.6564
179.146 17.2234
179.160 17.8178
179.175 18.4500
179.189 19.1138
179.204 19.8211
179.218 20.5651
179.233 21.3593
179.248 22.2023
179.262 23.0982
179.277 24.0444
179.291 25.0588
179.306 26.1327
179.320 27.2867
179.335 28.5114
179.349 29.8309
179.364 31.2350
179.379 32.7519
179.393 34.3709
179.408 36.1253
179.422 38.0036
179.437 40.0459
179.451 42.2401
179.466 44.6345
179.480 47.2355
179.488 48.6207
179.495 50.0667
179.502 51.5770
179.510 53.1332
179.517 54.7825
179.524 56.5081
179.531 58.3147
179.539 60.1807
179.546 62.1633
179.553 64.2429
179.561 66.4258
179.568 68.6865
179.575 71.0950
179.582 73.6287
179.590 76.2960
179.597 79.0668
179.604 82.0279
179.611 85.1528
179.619 88.4534
179.626 91.8936
179.633 95.5829
179.641 99.4905
179.648 103.633
179.655 107.968
179.662 112.635
179.670 117.598
179.677 122.882
179.684 128.435
179.691 134.440
179.699 140.857
179.706 147.721
179.713 155.075
179.721 162.963
179.728 171.437
179.735 180.552
179.742 190.233
179.750 200.818
179.757 212.258
179.764 224.641
179.772 237.877
179.779 252.445
179.786 268.297
179.793 285.577
179.801 304.178
179.808 324.801
179.815 347.407
179.819 359.698
179.823 372.237
179.826 385.381
179.830 399.167
179.833 414.044
179.837 429.249
179.841 445.672
179.844 462.472
179.848 480.634
179.852 499.228
179.855 518.787
179.859 539.368
179.863 561.650
179.866 584.494
179.870 609.238
179.873 634.616
179.877 662.115
179.881 690.326
179.884 720.049
179.888 751.363
179.892 785.287
179.895 820.069
179.899 857.724
179.903 896.291
179.906 937.988
179.910 980.623
179.913 1025.35
179.917 1072.20
179.922 1143.65
179.927 1219.55
179.933 1299.72
179.938 1383.81
179.943 1471.28
179.948 1561.29
179.959 1742.29
179.964 1831.80
179.969 1917.33
179.974 1996.48
179.979 2066.73
179.985 2125.56
179.990 2170.71
179.995 2200.30
180.000 2213.02
180.005 2208.87
180.010 2187.75
180.016 2150.70
180.021 2099.44
180.026 2036.12
180.031 1963.18
180.036 1883.11
180.042 1799.93
180.052 1624.33
180.062 1451.38
180.068 1368.72
180.073 1289.53
180.078 1214.21
180.083 1144.32
180.088 1080.96
180.093 1021.31
180.098 965.291
180.103 913.814
180.107 864.590
180.112 818.560
180.117 775.545
180.122 736.155
180.127 698.570
180.132 663.464
180.137 630.663
180.142 600.613
180.146 571.909
180.151 545.584
180.156 520.409
180.161 497.292
180.166 475.153
180.171 454.383
180.176 434.881
180.180 416.918
180.185 399.660
180.190 383.739
180.195 368.418
180.200 354.259
180.205 340.613
180.210 327.725
180.215 315.543
180.219 304.249
180.224 293.328
180.229 283.186
180.239 264.230
180.249 246.950
180.258 231.473
180.268 217.422
180.278 204.631
180.287 192.843
180.297 182.172
180.307 172.387
180.317 163.392
180.326 155.025
180.336 147.384
180.346 140.316
180.355 133.767
180.365 127.627
180.375 121.977
180.385 116.714
180.394 111.804
180.404 107.169
180.414 102.878
180.424 98.8558
180.433 95.0813
180.443 91.4989
180.453 88.1636
180.462 85.0216
180.472 82.0581
180.482 79.2318
180.492 76.5882
180.501 74.0866
180.511 71.7170
180.531 67.3163
180.550 63.3666
180.569 59.7724
180.589 56.5243
180.608 53.5496
180.628 50.8452
180.647 48.3542
180.667 46.0774
180.686 43.9698
180.706 42.0341
180.725 40.2341
180.744 38.5738
180.764 37.0236
180.783 35.5883
180.803 34.2431
180.822 32.9931
180.842 31.8178
180.861 30.7221
180.881 29.6887
180.900 28.7226
180.920 27.8088
180.939 26.9522
180.958 26.1398
180.978 25.3764
180.997 24.6508
181.017 23.9673
181.036 23.3162
181.056 22.7016
181.095 21.5600
181.133 20.5265
181.172 19.5875
181.211 18.7316
181.250 17.9489
181.289 17.2311
181.328 16.5711
181.367 15.9625
181.406 15.4001
181.445 14.8791
181.484 14.3955
181.522 13.9456
181.561 13.5262
181.600 13.1346
181.639 12.7682
181.678 12.4250
181.717 12.1028
181.756 11.7999
181.795 11.5148
181.834 11.2461
181.873 10.9924
181.911 10.7526
181.950 10.5257
181.989 10.3107
182.028 10.1068
182.067 9.91314
182.106 9.72907
182.184 9.38710
182.262 9.07630
182.339 8.79282
182.417 8.53339
182.495 8.29524
182.573 8.07597
182.651 7.87355
182.728 7.68619
182.806 7.51235
182.884 7.35068
182.962 7.20002
183.040 7.05932
183.117 6.92766
183.195 6.80424
183.273 6.68835
183.351 6.57933
183.429 6.47662
183.506 6.37971
183.584 6.28813
183.662 6.20148
183.740 6.11938
183.818 6.04149
183.895 5.96751
183.973 5.89715
184.051 5.83017
184.129 5.76634
184.284 5.64728
184.440 5.53849
184.596 5.43873
184.751 5.34694
184.907 5.26221
185.062 5.18376
185.218 5.11094
185.374 5.04316
185.529 4.97991
185.685 4.92076
185.840 4.86532
185.996 4.81326
186.152 4.76426
186.307 4.71807
186.463 4.67444
186.618 4.63317
186.774 4.59406
186.930 4.55695
187.085 4.52168
187.241 4.48812
187.396 4.45613
187.552 4.42561
187.708 4.39645
187.863 4.36857
188.174 4.31627
188.486 4.26811
188.797 4.22360
189.108 4.18231
189.419 4.14387
189.730 4.10797
190.042 4.07434
190.353 4.04275
190.664 4.01300
190.975 3.98491
191.286 3.95832
191.598 3.93311
191.909 3.90913
192.220 3.88630
192.531 3.86450
192.842 3.84366
193.154 3.82370
193.465 3.80454
193.776 3.78613
194.087 3.76841
194.398 3.75131
194.710 3.73481
195.021 3.71885
195.643 3.68840
196.266 3.65969
196.888 3.63248
197.510 3.60655
198.133 3.58174
198.444 3.56971
198.755 3.55789
199.066 3.54628
199.378 3.53486
199.689 3.52361
200.000 3.51253
200.310 3.50164
200.621 3.49089
200.931 3.48027
201.241 3.46978
201.551 3.45942
201.861 3.44919
202.172 3.43908
202.482 3.42912
202.792 3.41931
203.102 3.40968
203.257 3.40494
203.413 3.40027
203.568 3.39567
203.723 3.39114
203.878 3.38669
204.033 3.38235
204.188 3.37813
204.343 3.37403
204.498 3.37009
204.653 3.36633
204.808 3.36278
204.964 3.35948
205.119 3.35646
205.274 3.35378
205.429 3.35151
205.584 3.34972
205.739 3.34851
205.894 3.34799
206.049 3.34830
206.127 3.34882
206.204 3.34962
206.282 3.35073
206.360 3.35217
206.437 3.35400
206.515 3.35623
206.592 3.35893
206.670 3.36215
206.747 3.36594
206.825 3.37037
206.903 3.37552
206.980 3.38147
207.058 3.38834
207.135 3.39623
207.213 3.40528
207.290 3.41563
207.368 3.42749
207.445 3.44103
207.523 3.45653
207.601 3.47427
207.678 3.49458
207.756 3.51785
207.833 3.54461
207.911 3.57537
207.950 3.59250
207.988 3.61091
208.027 3.63072
208.066 3.65199
208.105 3.67496
208.143 3.69975
208.182 3.72651
208.221 3.75535
208.260 3.78664
208.299 3.82054
208.337 3.85732
208.376 3.89715
208.415 3.94059
208.454 3.98791
208.492 4.03955
208.531 4.09585
208.570 4.15764
208.609 4.22545
208.648 4.30000
208.686 4.38192
208.725 4.47263
208.764 4.57306
208.803 4.68456
208.841 4.80837
208.880 4.94698
208.919 5.10228
208.958 5.27691
208.977 5.37244
208.996 5.47348
209.016 5.58159
209.035 5.69681
209.055 5.81974
209.074 5.95105
209.093 6.09149
209.113 6.24188
209.132 6.40315
209.152 6.57540
209.171 6.76156
209.190 6.96205
209.210 7.17834
209.229 7.41206
209.249 7.66506
209.268 7.93943
209.287 8.23757
209.307 8.56045
209.326 8.91452
209.345 9.30178
209.365 9.72634
209.384 10.1930
209.404 10.7073
209.423 11.2758
209.442 11.9061
209.462 12.6035
209.481 13.3857
209.491 13.8112
209.501 14.2620
209.510 14.7402
209.520 15.2478
209.530 15.7874
209.539 16.3615
209.549 16.9731
209.559 17.6255
209.568 18.3223
209.578 19.0673
209.588 19.8652
209.598 20.7208
209.607 21.6398
209.617 22.6177
209.627 23.6819
209.636 24.8304
209.646 26.0721
209.656 27.4171
209.665 28.8767
209.675 30.4640
209.685 32.1937
209.694 34.0830
209.704 36.1513
209.714 38.4211
209.724 40.9186
209.733 43.6741
209.743 46.7228
209.753 50.1062
209.758 51.9576
209.762 53.8726
209.767 55.8954
209.772 58.0337
209.777 60.3445
209.782 62.7432
209.787 65.3401
209.791 68.0406
209.796 70.9699
209.801 74.0221
209.806 77.3394
209.811 80.8027
209.816 84.5747
209.820 88.5209
209.825 92.8279
209.830 97.3436
209.835 102.283
209.840 107.473
209.845 113.161
209.850 119.152
209.854 125.732
209.859 132.676
209.864 140.320
209.869 148.402
209.874 157.314
209.879 166.754
209.884 177.179
209.888 188.234
209.893 200.455
209.898 213.421
209.903 227.755
209.908 242.952
209.913 259.730
209.917 277.477
209.922 296.587
209.927 317.109
209.932 338.120
209.936 360.438
209.941 384.011
209.945 408.186
209.950 433.874
209.954 459.719
209.964 512.745
209.968 538.977
209.973 564.011
209.977 587.137
209.982 607.193
209.986 624.338
209.991 637.181
209.996 645.755
210.000 649.337
210.005 647.943
210.009 641.533
210.014 630.427
210.018 615.508
210.023 596.751
210.027 575.661
210.032 552.027
210.037 527.552
210.046 475.789
210.055 425.415
210.059 401.088
210.064 378.291
210.069 356.127
210.073 335.625
210.078 314.653
210.083 295.083
210.088 276.876
210.093 260.307
210.097 244.619
210.102 230.380
210.107 216.917
210.112 204.707
210.117 193.165
210.122 182.483
210.127 172.591
210.131 163.605
210.136 155.091
210.141 147.345
210.146 139.994
210.151 133.292
210.156 126.919
210.161 120.981
210.166 115.441
210.170 110.370
210.175 105.526
210.180 101.083
210.185 96.8306
210.190 92.9213
210.195 89.1721
210.200 85.6485
210.204 82.3335
210.209 79.2735
210.214 76.3271
210.219 73.6021
210.224 70.9734
210.229 68.5378
210.234 66.1840
210.238 63.9549
210.248 59.8779
210.258 56.1996
210.268 52.8705
210.277 49.8189
210.287 47.0707
210.297 44.5622
210.306 42.2667
210.316 40.1402
210.326 38.2057
210.336 36.4230
210.345 34.7767
210.355 33.2534
210.365 31.8412
210.374 30.5294
210.384 29.3089
210.394 28.1601
210.404 27.0989
210.413 26.1067
210.423 25.1777
210.433 24.2978
210.443 23.4804
210.452 22.7117
210.462 21.9882
210.472 21.2993
210.481 20.6561
210.491 20.0484
210.501 19.4737
210.511 18.9296
210.520 18.4139
210.540 17.4602
210.559 16.5945
210.579 15.8142
210.598 15.1010
210.617 14.4540
210.637 13.8593
210.656 13.3166
210.676 12.8176
210.695 12.3575
210.715 11.9303
210.734 11.5369
210.754 11.1700
210.773 10.8307
210.792 10.5131
210.812 10.2184
210.831 9.94146
210.851 9.68360
210.870 9.44062
210.890 9.21366
210.909 8.99916
210.929 8.79825
210.948 8.60787
210.967 8.42910
210.987 8.26012
211.006 8.10023
211.026 7.94800
211.045 7.80440
211.084 7.53789
211.123 7.29686
211.162 7.07861
211.201 6.87929
211.240 6.69717
211.278 6.53027
211.317 6.37726
211.356 6.23590
211.395 6.10531
211.434 5.98440
211.473 5.87219
211.512 5.76785
211.551 5.67062
211.590 5.57985
211.628 5.49516
211.667 5.41561
211.706 5.34095
211.745 5.27078
211.784 5.20489
211.823 5.14262
211.862 5.08383
211.901 5.02826
211.939 4.97581
211.978 4.92597
212.017 4.87869
212.056 4.83379
212.095 4.79109
212.173 4.71175
212.250 4.63969
212.328 4.57383
212.406 4.51358
212.484 4.45816
212.561 4.40714
212.639 4.35993
212.717 4.31619
212.795 4.27555
212.873 4.23775
212.950 4.20243
213.028 4.16944
213.106 4.13848
213.184 4.10945
213.261 4.08210
213.339 4.05633
213.417 4.03200
213.495 4.00903
213.572 3.98726
213.650 3.96663
213.728 3.94702
213.806 3.92840
213.883 3.91065
213.961 3.89373
214.117 3.86216
214.272 3.83329
214.428 3.80676
214.583 3.78227
214.739 3.75962
214.894 3.73858
215.050 3.71898
215.205 3.70064
215.361 3.68347
215.516 3.66733
215.672 3.65212
215.828 3.63775
215.983 3.62416
216.139 3.61127
216.294 3.59901
216.450 3.58734
216.605 3.57620
216.761 3.56556
216.916 3.55537
217.227 3.53622
217.538 3.51851
217.849 3.50203
218.160 3.48663
218.471 3.47217
218.782 3.45853
219.094 3.44562
219.405 3.43335
219.716 3.42165
220.027 3.41046
220.338 3.39972
220.649 3.38939
220.960 3.37942
221.271 3.36978
221.582 3.36044
221.893 3.35136
222.515 3.33391
223.137 3.31726
223.759 3.30126
224.381 3.28580
225.003 3.27076
225.625 3.25607
226.248 3.24165
226.870 3.22743
227.492 3.21336
228.114 3.19937
228.736 3.18543
229.358 3.17148
229.980 3.15748
230.602 3.14338
231.224 3.12915
231.846 3.11475
232.468 3.10013
233.091 3.08525
233.713 3.07008
234.335 3.05458
234.957 3.03871
235.268 3.03063
235.579 3.02244
235.890 3.01415
236.201 3.00574
236.512 2.99722
236.823 2.98858
237.134 2.97982
237.445 2.97095
237.756 2.96196
238.067 2.95285
238.378 2.94364
238.689 2.93432
239.001 2.92490
239.312 2.91541
239.623 2.90586
239.934 2.89627
240.245 2.88667
240.556 2.87711
240.867 2.86764
241.178 2.85833
241.489 2.84927
241.800 2.84057
241.955 2.83640
242.111 2.83237
242.266 2.82852
242.422 2.82487
242.578 2.82145
242.733 2.81831
242.889 2.81547
243.044 2.81299
243.200 2.81093
243.355 2.80934
243.511 2.80830
243.666 2.80790
243.822 2.80822
243.977 2.80938
244.133 2.81151
244.288 2.81475
244.444 2.81929
244.599 2.82532
244.755 2.83308
244.910 2.84286
245.066 2.85500
245.221 2.86988
245.377 2.88798
245.532 2.90986
245.688 2.93624
245.844 2.96790
245.921 2.98604
245.999 3.00587
246.077 3.02762
246.155 3.05140
246.232 3.07747
246.310 3.10604
246.388 3.13735
246.466 3.17164
246.543 3.20931
246.621 3.25062
246.699 3.29608
246.777 3.34602
246.854 3.40108
246.932 3.46179
247.010 3.52882
247.088 3.60282
247.166 3.68485
247.243 3.77572
247.321 3.87682
247.399 3.98923
247.477 4.11481
247.554 4.25526
247.632 4.41274
247.710 4.58955
247.788 4.78917
247.865 5.01469
247.904 5.13872
247.943 5.27100
247.982 5.41219
248.021 5.56265
248.060 5.72399
248.099 5.89675
248.138 6.08195
248.176 6.28073
248.215 6.49433
248.254 6.72418
248.293 6.97183
248.332 7.23835
248.371 7.52707
248.410 7.83958
248.449 8.17838
248.487 8.54535
248.526 8.94561
248.565 9.38194
248.604 9.85857
248.643 10.3789
248.682 10.9513
248.721 11.5808
248.760 12.2750
248.799 13.0425
248.837 13.8935
248.876 14.8402
248.896 15.3550
248.915 15.8966
248.935 16.4696
248.954 17.0765
248.974 17.7233
248.993 18.4061
249.012 19.1354
249.032 19.9070
249.051 20.7327
249.071 21.6084
249.090 22.5428
249.110 23.5412
249.129 24.6149
249.148 25.7594
249.168 26.9937
249.187 28.3132
249.207 29.7405
249.226 31.2713
249.246 32.9238
249.265 34.7109
249.285 36.6575
249.304 38.7604
249.323 41.0601
249.343 43.5549
249.362 46.2953
249.382 49.2820
249.401 52.5612
249.421 56.1713
249.440 60.1784
249.450 62.3289
249.459 64.5936
249.469 67.0056
249.479 69.5245
249.489 72.1836
249.498 74.9932
249.508 77.9959
249.518 81.1429
249.528 84.4773
249.537 88.0137
249.547 91.7682
249.557 95.7585
249.566 100.004
249.576 104.526
249.586 109.399
249.596 114.551
249.605 120.058
249.615 125.952
249.625 132.337
249.634 139.121
249.644 146.413
249.654 154.260
249.664 162.809
249.673 171.948
249.683 181.829
249.693 192.531
249.702 204.140
249.712 216.756
249.722 230.489
249.732 245.465
249.741 262.002
249.751 279.926
249.761 299.578
249.770 321.166
249.780 345.179
249.790 371.390
249.795 385.649
249.800 400.331
249.805 416.091
249.809 432.330
249.814 449.773
249.819 468.141
249.824 487.487
249.829 507.441
249.834 528.891
249.839 551.019
249.843 574.806
249.848 599.343
249.853 625.713
249.858 652.899
249.863 682.096
249.868 712.166
249.873 744.418
249.877 777.581
249.882 813.077
249.887 849.485
249.894 906.334
249.901 966.730
249.908 1030.54
249.915 1096.53
249.922 1166.14
249.929 1236.77
249.944 1381.26
249.951 1452.55
249.958 1520.67
249.965 1583.71
249.972 1638.91
249.979 1685.87
249.986 1721.50
249.993 1745.33
250.000 1755.72
250.007 1752.57
250.014 1735.88
250.021 1706.49
250.028 1666.40
250.035 1616.19
250.042 1559.14
250.050 1495.60
250.057 1429.20
250.071 1289.66
250.085 1153.16
250.092 1087.43
250.099 1025.33
250.106 965.399
250.113 909.509
250.119 863.447
250.125 819.841
250.131 778.649
250.137 739.803
250.144 703.218
250.150 668.796
250.156 636.431
250.162 606.496
250.168 577.886
250.174 551.004
250.180 525.746
250.186 502.385
250.192 480.046
250.198 459.037
250.204 439.269
250.210 420.957
250.216 403.412
250.223 386.877
250.229 371.283
250.235 356.567
250.241 342.671
250.247 329.540
250.253 317.123
250.259 305.560
250.265 294.423
250.271 283.870
250.283 264.518
250.296 246.917
250.308 231.128
250.320 216.689
250.332 203.567
250.344 191.610
250.356 180.774
250.369 170.768
250.381 161.659
250.393 153.211
250.405 145.487
250.417 138.295
250.429 131.642
250.442 125.475
250.454 119.796
250.466 114.468
250.478 109.545
250.490 104.912
250.502 100.617
250.514 96.5640
250.527 92.7659
250.539 89.2019
250.551 85.8799
250.563 82.7281
250.575 79.7830
250.587 76.9822
250.600 74.3593
250.612 71.8593
250.624 69.4941
250.636 67.2543
250.648 65.1479
250.673 61.2335
250.697 57.6951
250.721 54.4733
250.746 51.5546
250.770 48.8910
250.794 46.4535
250.819 44.2081
250.843 42.1514
250.867 40.2550
250.891 38.5024
250.916 36.8729
250.940 35.3672
250.964 33.9672
250.989 32.6631
251.013 31.4414
251.037 30.3043
251.062 29.2397
251.086 28.2416
251.110 27.3007
251.135 26.4196
251.159 25.5901
251.183 24.8080
251.208 24.0669
251.232 23.3694
251.256 22.7094
251.281 22.0844
251.305 21.4893
251.329 20.9269
251.378 19.8844
251.427 18.9381
251.475 18.0796
251.524 17.2950
251.573 16.5787
251.621 15.9203
251.670 15.3157
251.719 14.7571
251.767 14.2417
251.816 13.7631
251.864 13.3197
251.913 12.9062
251.962 12.5216
252.010 12.1616
252.059 11.8254
252.108 11.5098
252.156 11.2141
252.205 10.9356
252.254 10.6739
252.302 10.4267
252.351 10.1938
252.400 9.97327
252.448 9.76496
252.497 9.56720
252.546 9.37999
252.594 9.20187
252.643 9.03290
252.740 8.71868
252.837 8.43312
252.935 8.17271
253.032 7.93444
253.129 7.71574
253.227 7.51445
253.324 7.32866
253.421 7.15674
253.519 6.99728
253.616 6.84904
253.713 6.71093
253.810 6.58200
253.908 6.46140
254.005 6.34839
254.102 6.24232
254.200 6.14258
254.297 6.04866
254.394 5.96008
254.492 5.87641
254.589 5.79728
254.686 5.72235
254.783 5.65129
254.881 5.58384
254.978 5.51972
255.075 5.45872
255.173 5.40061
255.270 5.34520
255.367 5.29232
255.562 5.19350
255.756 5.10298
255.951 5.01980
256.146 4.94311
256.340 4.87225
256.535 4.80651
256.729 4.74541
256.924 4.68848
257.119 4.63532
257.313 4.58557
257.508 4.53891
257.702 4.49506
257.897 4.45380
258.092 4.41488
258.286 4.37813
258.481 4.34335
258.675 4.31041
258.870 4.27915
259.065 4.24946
259.259 4.22120
259.454 4.19429
259.648 4.16863
259.843 4.14412
260.038 4.12070
260.232 4.09829
260.621 4.05624
261.011 4.01751
261.400 3.98171
261.789 3.94850
262.178 3.91761
262.567 3.88879
262.956 3.86182
263.346 3.83651
263.735 3.81270
264.124 3.79026
264.513 3.76906
264.902 3.74899
265.292 3.72994
265.681 3.71184
266.070 3.69460
266.459 3.67816
266.848 3.66245
267.238 3.64741
267.627 3.63300
268.016 3.61916
268.405 3.60586
268.794 3.59306
269.573 3.56881
270.351 3.54616
271.130 3.52491
271.908 3.50488
272.686 3.48592
273.465 3.46790
274.243 3.45070
275.021 3.43422
275.800 3.41837
276.578 3.40308
277.357 3.38827
278.135 3.37387
278.913 3.35982
279.692 3.34606
280.470 3.33255
281.248 3.31922
282.027 3.30603
282.805 3.29293
283.584 3.27985
284.362 3.26676
285.140 3.25358
285.530 3.24694
285.919 3.24027
286.308 3.23354
286.697 3.22675
287.086 3.21989
287.475 3.21296
287.865 3.20593
288.254 3.19881
288.643 3.19157
289.032 3.18421
289.421 3.17672
289.811 3.16908
290.200 3.16127
290.589 3.15329
290.978 3.14511
291.367 3.13674
291.562 3.13247
291.757 3.12814
291.951 3.12375
292.146 3.11931
292.340 3.11481
292.535 3.11025
292.730 3.10563
292.924 3.10094
293.119 3.09621
293.313 3.09141
293.508 3.08657
293.703 3.08168
293.897 3.07676
294.092 3.07180
294.286 3.06684
294.481 3.06188
294.676 3.05695
294.870 3.05208
295.065 3.04732
295.259 3.04272
295.357 3.04050
295.454 3.03835
295.551 3.03628
295.649 3.03430
295.746 3.03244
295.843 3.03071
295.940 3.02913
296.038 3.02773
296.135 3.02654
296.232 3.02559
296.330 3.02492
296.427 3.02458
296.524 3.02463
296.622 3.02512
296.719 3.02614
296.816 3.02776
296.913 3.03010
297.011 3.03329
297.108 3.03747
297.205 3.04282
297.303 3.04957
297.400 3.05797
297.449 3.06289
297.497 3.06835
297.546 3.07441
297.594 3.08111
297.643 3.08854
297.692 3.09674
297.740 3.10583
297.789 3.11586
297.838 3.12697
297.886 3.13923
297.935 3.15283
297.984 3.16785
298.032 3.18451
298.081 3.20296
298.130 3.22346
298.178 3.24619
298.227 3.27152
298.276 3.29968
298.324 3.33116
298.373 3.36627
298.422 3.40567
298.470 3.44979
298.519 3.49951
298.567 3.55547
298.616 3.61888
298.665 3.69066
298.689 3.73033
298.713 3.77252
298.738 3.81761
298.762 3.86583
298.786 3.91769
298.811 3.97306
298.835 4.03248
298.859 4.09631
298.884 4.16527
298.908 4.23925
298.932 4.31903
298.957 4.40520
298.981 4.49879
299.005 4.59979
299.030 4.70937
299.054 4.82847
299.078 4.95872
299.103 5.10025
299.127 5.25498
299.151 5.42448
299.176 5.61139
299.200 5.81630
299.224 6.04240
299.249 6.29255
299.273 6.57132
299.297 6.88039
299.322 7.22550
299.346 7.61222
299.358 7.82411
299.370 8.04910
299.382 8.28826
299.395 8.54060
299.407 8.81156
299.419 9.09810
299.431 9.40652
299.443 9.73347
299.455 10.0863
299.468 10.4645
299.480 10.8705
299.492 11.3033
299.504 11.7731
299.516 12.2754
299.528 12.8224
299.540 13.4094
299.553 14.0509
299.565 14.7479
299.577 15.5066
299.589 16.3273
299.601 17.2319
299.613 18.2149
299.626 19.3037
299.638 20.4930
299.650 21.8175
299.662 23.2853
299.674 24.9173
299.680 25.8023
299.686 26.7221
299.693 27.7111
299.699 28.7585
299.705 29.8688
299.711 31.0271
299.717 32.2773
299.723 33.6068
299.729 35.0221
299.735 36.5048
299.741 38.1124
299.747 39.8296
299.753 41.6664
299.759 43.6335
299.766 45.7430
299.772 48.0083
299.778 50.4445
299.784 53.0235
299.790 55.8499
299.796 58.9031
299.802 62.2066
299.808 65.7259
299.814 69.6075
299.817 71.7080
299.820 73.8286
299.823 76.1159
299.826 78.4272
299.829 80.8400
299.832 83.3599
299.835 86.0827
299.838 88.8391
299.842 91.8202
299.845 94.8408
299.848 98.1106
299.851 101.427
299.854 104.902
299.857 108.544
299.860 112.493
299.863 116.506
299.866 120.861
299.869 125.290
299.872 130.102
299.875 134.998
299.878 140.145
299.881 145.557
299.884 151.444
299.887 157.443
299.890 163.971
299.893 170.627
299.896 177.873
299.899 185.260
299.902 193.038
299.905 201.224
299.908 210.134
299.911 219.213
299.914 229.088
299.917 239.141
299.921 250.061
299.924 261.158
299.927 272.789
299.930 284.965
299.934 304.257
299.938 324.306
299.943 345.483
299.947 367.701
299.952 390.811
299.956 414.598
299.960 438.767
299.965 462.932
299.969 486.619
299.974 509.268
299.978 530.255
299.982 548.914
299.987 564.590
299.991 576.681
299.996 584.697
300.000 588.308
300.002 588.388
300.005 587.304
300.009 581.808
300.013 572.126
300.018 558.704
300.022 542.108
300.027 522.971
300.031 501.944
300.035 479.650
300.040 456.653
300.044 433.441
300.053 387.888
300.057 366.098
300.062 345.211
300.066 325.335
300.071 306.529
300.074 291.564
300.078 277.745
300.082 264.294
300.085 251.919
300.089 239.907
300.092 228.881
300.096 218.477
300.100 208.663
300.103 199.161
300.107 190.451
300.111 182.239
300.114 174.495
300.118 166.995
300.121 160.115
300.125 153.622
300.129 147.491
300.132 141.543
300.136 136.077
300.140 130.769
300.143 125.885
300.147 121.137
300.151 116.763
300.154 112.616
300.158 108.683
300.161 104.849
300.165 101.309
300.172 94.7444
300.180 88.7222
300.187 83.3343
300.194 78.3669
300.201 73.8418
300.209 69.7101
300.216 65.9783
300.223 62.5060
300.230 59.3563
300.238 56.4134
300.245 53.7332
300.252 51.2194
300.259 48.8907
300.267 46.7299
300.274 44.7478
300.281 42.8758
300.288 41.1532
300.296 39.5213
300.303 38.0152
300.310 36.5843
300.318 35.2423
300.325 33.9820
300.332 32.8126
300.339 31.6959
300.347 30.6574
300.354 29.6635
300.361 28.7370
300.368 27.8484
300.376 27.0072
300.390 25.4642
300.405 24.0726
300.419 22.8131
300.434 21.6620
300.448 20.6210
300.463 19.6701
300.477 18.7990
300.492 17.9990
300.506 17.2625
300.521 16.5829
300.535 15.9543
300.550 15.3679
300.564 14.8272
300.579 14.3241
300.593 13.8552
300.608 13.4145
300.622 13.0052
300.637 12.6219
300.651 12.2623
300.666 11.9222
300.681 11.6045
300.695 11.3052
300.710 11.0229
300.724 10.7545
300.739 10.5026
300.753 10.2641
300.768 10.0382
300.782 9.82241
300.797 9.61897
300.826 9.24167
300.855 8.89848
300.884 8.58738
300.913 8.30251
300.942 8.04265
300.971 7.80409
301.000 7.58449
301.000 31.7633
350.000 29.6818
400.000 27.9658
500.000 25.3430
600.000 23.4079
700.000 21.9366
720.000 21.6423
850.000 20.1699
1000.00 18.8429
1250.00 17.1894
1500.00 15.9704
1700.00 15.1964
2000.00 14.2621
2500.00 13.0990
3000.00 12.2425
3500.00 11.5783
4000.00 11.0441
5000.00 10.2299
6000.00 9.63143
7000.00 9.16830
8000.00 8.79651
9000.00 8.48980
10000.0 8.23134
12500.0 7.73015
15000.0 7.36356
17000.0 7.13238
20000.0 6.85524
25000.0 6.51368
30000.0 6.26497
35000.0 6.07398
40000.0 5.92164
50000.0 5.69161
60000.0 5.52403
70000.0 5.39493
80000.0 5.29137
90000.0 5.20575
100000 5.13326
125000 4.99088
150000 4.88406
150082 4.88378
160114 4.84907
170000 4.81486
198259 4.73427
200000 4.72930
250000 4.61865
256930 4.60557
256930 4.46401
256952 4.46400
256953 4.46399
300000 4.43824
323633 4.45709
362614 4.48819
363158 4.48862
400000 4.51801
419323 4.57611
481169 4.76204
481340 4.76255
502009 4.82469
520251 4.87953
521802 4.88420
627927 5.20325
660884 5.30233
700000 5.41993
706292 5.43696
711378 5.45074
725228 5.48824
759717 5.58163
990000 6.20520
990000 6.20520
1.00000E+06 6.23228
1.01000E+06 6.25916
1.02000E+06 6.27840
1.03000E+06 6.29750
1.04000E+06 6.31661
1.05000E+06 6.33571
1.06000E+06 6.35482
1.07000E+06 6.37392
1.08000E+06 6.39303
1.09000E+06 6.41213
1.10000E+06 6.43123
1.11000E+06 6.45034
1.13000E+06 6.48052
1.14000E+06 6.49551
1.15000E+06 6.51051
1.16000E+06 6.52550
1.17000E+06 6.54049
1.20000E+06 6.58547
1.32984E+06 6.69380
1.32984E+06 6.69380
1.35712E+06 6.71656
1.35713E+06 6.71656
1.50000E+06 6.83576
1.53809E+06 6.84013
1.55000E+06 6.84149
1.58971E+06 6.84644
1.58971E+06 6.84644
1.60000E+06 6.84773
1.60818E+06 6.84935
1.60819E+06 6.84934
1.63000E+06 6.85368
1.64252E+06 6.85617
1.64252E+06 6.85617
1.65000E+06 6.85765
1.69000E+06 6.85250
1.70000E+06 6.85094
1.75000E+06 6.84227
1.80000E+06 6.83310
1.80300E+06 6.83177
1.80300E+06 6.83177
1.83170E+06 6.81901
1.83170E+06 6.81901
1.85000E+06 6.81088
1.85628E+06 6.80834
1.85628E+06 6.80834
1.90000E+06 6.79069
1.90272E+06 6.78954
1.90272E+06 6.78954
1.95000E+06 6.76963
2.00000E+06 6.75019
2.01000E+06 6.74570
2.02000E+06 6.74121
2.04000E+06 6.72931
2.06000E+06 6.71741
2.08000E+06 6.71174
2.10000E+06 6.69983
2.50000E+06 6.43353
2.60000E+06 6.36720
2.70000E+06 6.29214
2.80000E+06 6.21708
2.90000E+06 6.14162
3.00000E+06 6.06565
3.50000E+06 5.67936
4.00000E+06 5.31174
5.00000E+06 4.67636
6.00000E+06 4.29488
7.00000E+06 4.18305
7.50913E+06 4.21199
7.50914E+06 4.21199
7.77404E+06 4.22705
8.00000E+06 4.23990
8.56072E+06 4.30926
9.00000E+06 4.36360
1.00000E+07 4.48666
1.10000E+07 4.60118
1.20000E+07 4.69939
1.30000E+07 4.77920
1.40000E+07 4.83684
1.50000E+07 4.86884
1.53013E+07 4.86992
1.53013E+07 4.86992
1.60000E+07 4.87242
1.70000E+07 4.84870
1.73199E+07 4.83212
1.73199E+07 4.83212
1.80000E+07 4.79685
1.90000E+07 4.71996
2.00000E+07 4.62416
