Sm-152(n,tot) ENDFB-8.0
Energy(eV) XS(b)
1.00000E-05 142.498
1.03125E-05 140.335
1.06250E-05 138.267
1.09375E-05 136.290
1.12500E-05 134.395
1.15625E-05 132.578
1.18750E-05 130.833
1.21875E-05 129.156
1.25000E-05 127.542
1.28125E-05 125.988
1.31250E-05 124.490
1.34375E-05 123.045
1.37500E-05 121.649
1.43750E-05 118.995
1.50000E-05 116.510
1.56250E-05 114.175
1.62500E-05 111.977
1.68750E-05 109.903
1.75000E-05 107.941
1.81250E-05 106.082
1.87500E-05 104.317
1.93750E-05 102.638
2.00000E-05 101.039
2.09375E-05 98.7760
2.18750E-05 96.6608
2.28125E-05 94.6780
2.37500E-05 92.8141
2.46875E-05 91.0579
2.56250E-05 89.3994
2.65625E-05 87.8299
2.75000E-05 86.3417
2.84375E-05 84.9280
2.93750E-05 83.5829
3.03125E-05 82.3010
3.12500E-05 81.0776
3.21875E-05 79.9082
3.31250E-05 78.7891
3.40625E-05 77.7168
3.50000E-05 76.6881
3.59375E-05 75.7002
3.68750E-05 74.7504
3.78125E-05 73.8364
3.87500E-05 72.9559
3.96875E-05 72.1071
4.06250E-05 71.2880
4.25000E-05 69.7323
4.43750E-05 68.2771
4.62500E-05 66.9118
4.81250E-05 65.6278
5.00000E-05 64.4172
5.15625E-05 63.4596
5.31250E-05 62.5449
5.46875E-05 61.6701
5.62500E-05 60.8322
5.78125E-05 60.0289
5.93750E-05 59.2578
6.09375E-05 58.5167
6.25000E-05 57.8040
6.40625E-05 57.1177
6.56250E-05 56.4563
6.71875E-05 55.8183
6.87500E-05 55.2024
7.18750E-05 54.0321
7.50000E-05 52.9365
7.81250E-05 51.9080
8.12500E-05 50.9401
8.43750E-05 50.0272
8.75000E-05 49.1641
9.06250E-05 48.3467
9.37500E-05 47.5709
9.68750E-05 46.8336
0.000100000 46.1315
0.000103125 45.4620
0.000106250 44.8226
0.000109375 44.2113
0.000112500 43.6260
0.000115625 43.0649
0.000118750 42.5265
0.000121875 42.0092
0.000125000 41.5117
0.000128125 41.0329
0.000131250 40.5715
0.000134375 40.1266
0.000137500 39.6971
0.000143750 38.8814
0.000150000 38.1181
0.000156250 37.4018
0.000162500 36.7280
0.000168750 36.0927
0.000175000 35.4924
0.000181250 34.9239
0.000187500 34.3847
0.000193750 33.8724
0.000200000 33.3847
0.000209375 32.6953
0.000218750 32.0517
0.000228125 31.4490
0.000237500 30.8832
0.000246875 30.3505
0.000256250 29.8480
0.000265625 29.3730
0.000275000 28.9230
0.000284375 28.4960
0.000293750 28.0900
0.000303125 27.7035
0.000312500 27.3349
0.000321875 26.9828
0.000331250 26.6462
0.000340625 26.3240
0.000350000 26.0150
0.000359375 25.7186
0.000368750 25.4338
0.000378125 25.1599
0.000387500 24.8962
0.000396875 24.6422
0.000406250 24.3972
0.000425000 23.9324
0.000443750 23.4981
0.000462500 23.0911
0.000481250 22.7087
0.000500000 22.3485
0.000515625 22.0639
0.000531250 21.7922
0.000546875 21.5325
0.000562500 21.2840
0.000578125 21.0458
0.000593750 20.8174
0.000609375 20.5980
0.000625000 20.3870
0.000640625 20.1841
0.000656250 19.9885
0.000671875 19.8000
0.000687500 19.6181
0.000718750 19.2727
0.000750000 18.9495
0.000781250 18.6464
0.000812500 18.3613
0.000843750 18.0926
0.000875000 17.8387
0.000906250 17.5983
0.000937500 17.3702
0.000968750 17.1535
0.00100000 16.9473
0.00103125 16.7507
0.00106250 16.5630
0.00109375 16.3835
0.00112500 16.2118
0.00115625 16.0472
0.00118750 15.8892
0.00121875 15.7375
0.00125000 15.5915
0.00128125 15.4511
0.00131250 15.3158
0.00134375 15.1853
0.00137500 15.0594
0.00143750 14.8202
0.00150000 14.5963
0.00156250 14.3863
0.00162500 14.1887
0.00168750 14.0023
0.00175000 13.8261
0.00181250 13.6593
0.00187500 13.5011
0.00193750 13.3506
0.00200000 13.2074
0.00209375 13.0049
0.00218750 12.8157
0.00228125 12.6384
0.00237500 12.4719
0.00246875 12.3151
0.00256250 12.1671
0.00265625 12.0271
0.00275000 11.8944
0.00284375 11.7684
0.00293750 11.6486
0.00303125 11.5344
0.00312500 11.4255
0.00321875 11.3214
0.00331250 11.2218
0.00340625 11.1264
0.00350000 11.0349
0.00359375 10.9471
0.00368750 10.8626
0.00378125 10.7814
0.00387500 10.7031
0.00396875 10.6277
0.00406250 10.5549
0.00425000 10.4167
0.00443750 10.2874
0.00462500 10.1662
0.00481250 10.0521
0.00500000 9.94466
0.00515625 9.85964
0.00531250 9.77843
0.00546875 9.70076
0.00562500 9.62638
0.00578125 9.55506
0.00593750 9.48659
0.00609375 9.42080
0.00625000 9.35752
0.00640625 9.29658
0.00656250 9.23785
0.00671875 9.18119
0.00687500 9.12649
0.00718750 9.02253
0.00750000 8.92519
0.00781250 8.83378
0.00812500 8.74773
0.00843750 8.66654
0.00875000 8.58977
0.00906250 8.51702
0.00937500 8.44797
0.00968750 8.38230
0.0100000 8.31976
0.0103125 8.26010
0.0106250 8.20311
0.0109375 8.14859
0.0112500 8.09637
0.0115625 8.04630
0.0118750 7.99824
0.0121875 7.95204
0.0125000 7.90760
0.0128125 7.86480
0.0131250 7.82355
0.0134375 7.78375
0.0137500 7.74533
0.0143750 7.67229
0.0150000 7.60387
0.0156250 7.53962
0.0162500 7.47913
0.0168750 7.42203
0.0175000 7.36803
0.0181250 7.31686
0.0187500 7.26827
0.0193750 7.22207
0.0200000 7.17805
0.0206625 7.13360
0.0213250 7.09124
0.0219875 7.05082
0.0226500 7.01219
0.0233125 6.97522
0.0239750 6.93980
0.0246375 6.90583
0.0253000 6.87320
0.0264578 6.81915
0.0276156 6.76855
0.0287734 6.72104
0.0299313 6.67633
0.0310891 6.63414
0.0322469 6.59426
0.0334047 6.55646
0.0345625 6.52059
0.0355274 6.49204
0.0364922 6.46462
0.0374570 6.43827
0.0384219 6.41291
0.0393867 6.38849
0.0403516 6.36495
0.0413164 6.34224
0.0422813 6.32030
0.0442109 6.27861
0.0461406 6.23956
0.0480703 6.20289
0.0500000 6.16835
0.0515625 6.14182
0.0531250 6.11646
0.0546875 6.09220
0.0562500 6.06895
0.0578125 6.04665
0.0593750 6.02523
0.0609375 6.00465
0.0625000 5.98484
0.0640625 5.96576
0.0656250 5.94736
0.0671875 5.92961
0.0687500 5.91247
0.0718750 5.87987
0.0750000 5.84930
0.0781250 5.82057
0.0812500 5.79349
0.0843750 5.76792
0.0875000 5.74373
0.0906250 5.72079
0.0937500 5.69899
0.0968750 5.67825
0.100000 5.65849
0.103125 5.63962
0.106250 5.62158
0.109375 5.60431
0.112500 5.58776
0.115625 5.57187
0.118750 5.55661
0.121875 5.54194
0.125000 5.52781
0.128125 5.51420
0.131250 5.50108
0.134375 5.48841
0.137500 5.47618
0.143750 5.45289
0.150000 5.43103
0.156250 5.41047
0.162500 5.39108
0.168750 5.37276
0.175000 5.35541
0.181250 5.33894
0.187500 5.32329
0.193750 5.30838
0.200000 5.29416
0.204688 5.28392
0.209375 5.27402
0.218750 5.25517
0.228125 5.23743
0.237500 5.22072
0.246875 5.20494
0.256250 5.19000
0.265625 5.17583
0.275000 5.16237
0.284375 5.14955
0.293750 5.13733
0.303125 5.12565
0.312500 5.11448
0.321875 5.10378
0.331250 5.09351
0.340625 5.08365
0.350000 5.07417
0.359375 5.06504
0.368750 5.05625
0.378125 5.04776
0.387500 5.03957
0.396875 5.03166
0.406250 5.02401
0.425000 5.00943
0.443750 4.99570
0.462500 4.98275
0.500000 4.95895
0.531250 4.94092
0.562500 4.92425
0.593750 4.90879
0.625000 4.89439
0.687500 4.86829
0.750000 4.84515
0.812500 4.82440
0.875000 4.80564
0.937500 4.78851
1.00000 4.77272
1.06250 4.75810
1.12500 4.74450
1.18750 4.73177
1.25000 4.71982
1.37500 4.69789
1.50000 4.67812
1.62500 4.66012
1.75000 4.64358
1.87500 4.62825
2.00000 4.61391
2.18750 4.59403
2.37500 4.57576
2.56250 4.55881
2.75000 4.54297
2.93750 4.52807
3.12500 4.51396
3.31250 4.50054
3.50000 4.48772
3.68750 4.47543
3.87500 4.46361
4.06250 4.45222
4.25000 4.44120
4.62500 4.42015
5.00000 4.40022
5.31250 4.38433
5.62500 4.36899
5.93750 4.35413
6.25000 4.33971
6.56250 4.32567
6.87500 4.31197
7.18750 4.29856
7.50000 4.28542
8.12500 4.25985
8.75000 4.23506
9.37500 4.21092
10.0000 4.18730
10.6250 4.16411
11.2500 4.14127
11.8750 4.11873
12.5000 4.09642
13.1250 4.07431
13.7500 4.05235
15.0000 4.00873
16.2500 3.96536
17.5000 3.92202
18.7500 3.87859
20.0000 3.83492
21.1719 3.79366
22.3438 3.75203
23.5156 3.70997
24.6875 3.66740
26.0938 3.61550
27.5000 3.56273
29.3750 3.49072
31.2500 3.41669
33.1250 3.34041
35.0000 3.26167
36.8750 3.18025
38.7500 3.09592
40.6250 3.00846
42.5000 2.91761
44.3750 2.82312
46.2500 2.72471
48.1250 2.62211
50.0000 2.51502
51.6583 2.41622
53.3165 2.31343
54.1456 2.26077
54.9748 2.20656
55.8039 2.15167
56.6330 2.09543
58.2913 1.97983
59.9495 1.85936
61.6078 1.73434
62.4369 1.67005
63.2660 1.60461
64.2261 1.52744
65.1861 1.44894
66.1461 1.36921
67.1062 1.28841
68.0662 1.20688
69.0263 1.12493
69.9863 1.04308
70.9463 0.961956
71.6446 0.903921
72.3428 0.847166
73.0410 0.792219
73.7392 0.739731
74.4374 0.690400
74.7865 0.667208
75.1356 0.645303
75.4847 0.624767
75.8338 0.605782
76.1829 0.588550
76.5320 0.573230
76.7284 0.565557
76.9248 0.558682
77.1211 0.552627
77.3175 0.547440
77.5139 0.543176
77.6121 0.541407
77.7103 0.539890
77.8085 0.538636
77.9066 0.537658
78.0048 0.536968
78.1030 0.536575
78.2230 0.536510
78.3430 0.536918
78.4630 0.537820
78.5830 0.539234
78.7030 0.541184
78.8230 0.543693
78.9431 0.546783
79.0631 0.550479
79.1422 0.553259
79.2212 0.556320
79.3003 0.559670
79.3794 0.563318
79.4585 0.567271
79.5376 0.571541
79.5772 0.573797
79.6167 0.576135
79.6563 0.578557
79.6958 0.581064
79.7285 0.583204
79.7613 0.585403
79.7940 0.587663
79.8267 0.589984
79.8622 0.592568
79.8976 0.595225
79.9331 0.597956
79.9685 0.600763
80.0040 0.603646
80.0395 0.606606
80.0749 0.609644
80.1104 0.612761
80.1595 0.617211
80.2086 0.621817
80.2577 0.626582
80.3067 0.631509
80.4049 0.641857
80.5031 0.652883
80.6013 0.664614
80.6995 0.677074
80.7977 0.690293
80.8959 0.704296
80.9559 0.713253
81.0159 0.722521
81.0759 0.732106
81.1359 0.742016
81.1959 0.752260
81.2559 0.762843
81.3159 0.773772
81.3759 0.785057
81.4359 0.796707
81.4959 0.808727
81.5559 0.821127
81.6159 0.833916
81.6759 0.847105
81.7359 0.860698
81.7959 0.874707
81.8559 0.889142
81.9159 0.904016
81.9759 0.919332
82.0359 0.935105
82.0959 0.951344
82.1559 0.968064
82.2159 0.985270
82.2759 1.00298
82.3359 1.02120
82.3959 1.03994
82.4559 1.05922
82.5759 1.09945
82.6959 1.14197
82.8159 1.18692
82.9359 1.23441
83.0559 1.28456
83.1760 1.33751
83.2960 1.39339
83.4160 1.45236
83.5360 1.51457
83.6560 1.58019
83.7760 1.64939
83.8960 1.72237
84.0160 1.79932
84.1360 1.88045
84.2560 1.96598
84.3760 2.05615
84.4960 2.15122
84.6160 2.25146
84.7360 2.35714
84.8560 2.46858
84.9760 2.58609
85.0960 2.71004
85.2160 2.84077
85.3360 2.97870
85.4560 3.12424
85.5761 3.27785
85.6961 3.44000
85.8161 3.61122
85.9361 3.79206
86.0561 3.98313
86.1761 4.18505
86.2961 4.39853
86.4161 4.62429
86.5361 4.86315
86.6561 5.11595
86.7761 5.38365
86.8961 5.66721
87.0161 5.96777
87.1361 6.28645
87.2561 6.62458
87.3761 6.98350
87.4961 7.36475
87.6161 7.76992
87.7361 8.20085
87.8561 8.65942
87.9762 9.14782
88.0962 9.66830
88.2162 10.2235
88.3362 10.8161
88.4562 11.4493
88.5762 12.1263
88.6962 12.8509
88.8162 13.6273
88.9362 14.4600
89.0562 15.3539
89.1762 16.3149
89.2962 17.3489
89.4162 18.4631
89.5362 19.6651
89.6562 20.9638
89.7762 22.3688
89.8962 23.8914
90.0162 25.5437
90.1362 27.3401
90.2562 29.2964
90.3762 31.4310
90.4962 33.7648
90.6163 36.3219
90.7363 39.1298
90.8563 42.2205
90.9163 43.8830
90.9763 45.6305
91.0363 47.4690
91.0963 49.4038
91.1563 51.4419
91.2163 53.5903
91.2763 55.8572
91.3363 58.2503
91.3963 60.7790
91.4563 63.4535
91.5599 68.4488
91.6118 71.1413
91.6636 73.9756
91.7154 76.9611
91.7672 80.1084
91.8190 83.4288
91.8709 86.9345
91.9227 90.6390
91.9745 94.5569
92.0263 98.7044
92.0781 103.099
92.1300 107.761
92.1818 112.713
92.2336 117.977
92.2854 123.581
92.3454 130.535
92.4054 138.033
92.4654 146.133
92.5254 154.899
92.5854 164.405
92.6454 174.732
92.7054 185.975
92.7654 198.244
92.8254 211.668
92.8854 226.387
92.9454 242.573
93.0054 260.424
93.0655 280.176
93.0955 290.845
93.1255 302.096
93.1555 313.969
93.1855 326.512
93.2155 339.775
93.2455 353.812
93.2741 367.993
93.3027 382.993
93.3314 398.877
93.3600 415.709
93.3886 433.576
93.4173 452.559
93.4459 472.751
93.4746 494.248
93.5032 517.182
93.5318 541.673
93.5605 567.866
93.5891 595.910
93.6177 626.007
93.6464 658.350
93.6750 693.168
93.7037 730.705
93.7337 773.305
93.7637 819.598
93.7937 870.041
93.8237 925.144
93.8537 985.497
93.8837 1051.79
93.9137 1124.81
93.9437 1205.51
93.9737 1295.01
93.9887 1343.43
94.0037 1394.55
94.0187 1448.56
94.0337 1505.68
94.0487 1566.14
94.0637 1630.19
94.0787 1698.13
94.0937 1770.23
94.1087 1846.84
94.1237 1928.30
94.1387 2014.99
94.1537 2107.33
94.1687 2205.76
94.1837 2310.76
94.1980 2417.60
94.2123 2531.37
94.2266 2652.57
94.2410 2781.75
94.2553 2919.47
94.2696 3066.31
94.2839 3222.89
94.2982 3389.73
94.3125 3567.71
94.3269 3757.38
94.3412 3959.42
94.3555 4174.50
94.3698 4403.26
94.3841 4646.34
94.3985 4904.34
94.4128 5177.60
94.4278 5481.15
94.4428 5802.65
94.4578 6142.44
94.4728 6500.73
94.4878 6877.54
94.5028 7272.70
94.5178 7685.85
94.5328 8116.35
94.5628 9025.96
94.5928 9990.46
94.6528 12019.0
94.6945 13428.2
94.7153 14105.1
94.7362 14749.5
94.7570 15350.8
94.7779 15898.4
94.7987 16382.4
94.8196 16793.2
94.8397 17113.1
94.8598 17351.8
94.8799 17504.8
94.9000 17569.4
94.9218 17538.5
94.9436 17403.4
94.9654 17167.5
94.9872 16836.7
95.0089 16418.2
95.0307 15921.7
95.0525 15357.2
95.0743 14736.9
95.1034 13839.9
95.1326 12892.3
95.1908 10952.4
95.2242 9869.87
95.2576 8841.64
95.2743 8353.70
95.2910 7885.43
95.3077 7437.95
95.3244 7012.02
95.3376 6692.79
95.3507 6387.18
95.3638 6095.16
95.3769 5816.60
95.3900 5551.30
95.4032 5298.96
95.4163 5059.26
95.4294 4831.82
95.4425 4616.22
95.4556 4412.01
95.4688 4218.73
95.4819 4035.89
95.4950 3863.01
95.5081 3699.60
95.5212 3545.17
95.5344 3399.25
95.5475 3261.38
95.5606 3131.09
95.5737 3007.96
95.5868 2891.56
95.6000 2781.49
95.6131 2677.37
95.6262 2578.83
95.6393 2485.53
95.6524 2397.14
95.6656 2313.37
95.6918 2158.51
95.7180 2018.86
95.7443 1892.60
95.7622 1813.32
95.7801 1739.11
95.7980 1669.51
95.8159 1604.17
95.8337 1542.74
95.8516 1484.92
95.8695 1430.43
95.8874 1379.01
95.9053 1330.42
95.9232 1284.50
95.9590 1199.83
95.9948 1123.65
96.0305 1054.84
96.0568 1008.49
96.0830 965.308
96.1093 924.978
96.1355 887.254
96.1618 851.911
96.1880 818.750
96.2142 787.591
96.2405 758.274
96.2667 730.655
96.2930 704.601
96.3192 679.995
96.3454 656.730
96.3717 634.708
96.3979 613.840
96.4504 575.254
96.5029 540.397
96.5554 508.809
96.6078 480.081
96.6603 453.872
96.7128 429.892
96.7653 407.891
96.8178 387.654
96.8702 368.993
96.9180 353.260
96.9657 338.586
97.0134 324.876
97.0611 312.045
97.1088 300.017
97.1565 288.725
97.2042 278.108
97.2519 268.113
97.2996 258.692
97.3473 249.799
97.3951 241.397
97.4428 233.450
97.4905 225.923
97.5382 218.789
97.6336 205.590
97.6861 198.880
97.7386 192.527
97.7910 186.504
97.8435 180.788
97.9485 170.196
98.0534 160.602
98.1584 151.882
98.2634 143.930
98.3683 136.657
98.4733 129.986
98.5401 126.022
98.6069 122.261
98.7405 115.289
98.8741 108.973
99.0076 103.235
99.1412 98.0022
99.2748 93.2112
99.4084 88.8098
99.5420 84.7569
99.6565 81.5328
99.7710 78.5186
99.8855 75.6958
100.000 73.0480
100.108 70.6996
100.216 68.4824
100.324 66.3864
100.432 64.4044
100.539 62.5246
100.647 60.7430
100.755 59.0495
100.863 57.4413
101.079 54.4506
101.294 51.7340
101.510 49.2564
101.726 46.9895
101.942 44.9081
102.157 42.9932
102.373 41.2259
102.589 39.5908
102.804 38.0743
103.020 36.6646
103.236 35.3524
103.452 34.1303
103.667 32.9868
103.883 31.9129
104.099 30.9041
104.314 29.9555
104.530 29.0624
104.746 28.2201
104.962 27.4246
105.177 26.6723
105.393 25.9599
105.609 25.2844
105.824 24.6432
106.040 24.0337
106.256 23.4537
106.471 22.9012
106.903 21.8715
107.334 20.9314
107.766 20.0701
108.197 19.2782
108.629 18.5477
109.060 17.8717
109.491 17.2445
109.923 16.6609
110.354 16.1165
110.688 15.7202
111.021 15.3433
111.354 14.9845
111.688 14.6427
112.021 14.3181
112.355 14.0070
112.688 13.7080
113.021 13.4220
113.688 12.8840
114.355 12.3873
115.022 11.9268
115.688 11.4984
116.120 11.2366
116.551 10.9856
116.983 10.7445
117.414 10.5132
118.277 10.0758
119.140 9.66891
120.003 9.28791
120.865 8.92984
121.728 8.59143
122.591 8.26986
123.532 7.93577
124.474 7.61607
125.415 7.30847
125.886 7.15832
126.356 7.01029
126.984 6.81563
127.611 6.62347
128.239 6.43305
128.866 6.24361
129.494 6.05435
129.808 5.95952
130.121 5.86443
130.435 5.76888
130.749 5.67281
131.063 5.57601
131.376 5.47839
131.729 5.36731
132.082 5.25470
132.435 5.14026
132.788 5.02370
133.141 4.90468
133.318 4.84415
133.494 4.78289
133.671 4.72085
133.847 4.65793
134.024 4.59409
134.200 4.52931
134.416 4.44867
134.632 4.36645
134.847 4.28253
135.063 4.19681
135.279 4.10924
135.387 4.06472
135.495 4.01977
135.602 3.97431
135.710 3.92843
135.818 3.88205
135.926 3.83529
136.063 3.77515
136.201 3.71446
136.338 3.65331
136.475 3.59193
136.612 3.53047
136.750 3.46932
136.818 3.43893
136.887 3.40883
136.955 3.37905
137.024 3.34968
137.132 3.30458
137.240 3.26127
137.348 3.22039
137.402 3.20113
137.456 3.18280
137.510 3.16551
137.563 3.14948
137.617 3.13486
137.671 3.12185
137.725 3.11068
137.779 3.10164
137.833 3.09502
137.887 3.09118
137.956 3.09097
138.024 3.09692
138.093 3.11026
138.161 3.13246
138.230 3.16538
138.299 3.21116
138.333 3.23973
138.367 3.27260
138.402 3.31023
138.436 3.35313
138.487 3.42871
138.539 3.51973
138.590 3.62892
138.642 3.75932
138.693 3.91550
138.719 4.00488
138.745 4.10226
138.771 4.20922
138.796 4.32588
138.822 4.45365
138.848 4.59372
138.867 4.71026
138.887 4.83482
138.907 4.96874
138.926 5.11283
138.946 5.26803
138.965 5.43537
138.985 5.61601
139.005 5.81129
139.018 5.95509
139.032 6.10710
139.045 6.26794
139.059 6.43829
139.072 6.61891
139.086 6.81064
139.099 7.01442
139.113 7.22967
139.123 7.40812
139.133 7.59401
139.144 7.78967
139.154 7.99586
139.159 8.09688
139.167 8.26747
139.175 8.44316
139.183 8.62889
139.191 8.82048
139.202 9.10446
139.213 9.40438
139.224 9.72748
139.235 10.0700
139.246 10.4403
139.257 10.8344
139.263 11.0425
139.268 11.2583
139.274 11.4824
139.279 11.7152
139.286 12.0157
139.293 12.3264
139.300 12.6574
139.306 13.0002
139.313 13.3661
139.320 13.7455
139.326 14.1450
139.333 14.5659
139.340 15.0165
139.347 15.4852
139.353 15.9876
139.360 16.5109
139.367 17.0726
139.374 17.6583
139.380 18.2783
139.387 18.9349
139.394 19.6413
139.401 20.3795
139.407 21.1745
139.414 22.0060
139.421 22.9021
139.428 23.8401
139.434 24.8363
139.441 25.8947
139.448 27.0367
139.454 28.2332
139.461 29.5245
139.468 30.8778
139.475 32.3388
139.481 33.8699
139.488 35.4978
139.495 37.2285
139.502 39.0967
139.508 41.0542
139.515 43.1665
139.522 45.3791
139.529 47.7658
139.535 50.2646
139.542 52.9585
139.549 55.7772
139.556 58.8141
139.562 61.9893
139.569 65.4077
139.576 68.9788
139.583 72.8200
139.589 76.8290
139.596 81.0717
139.603 85.5595
139.610 90.3766
139.616 95.3934
139.623 100.772
139.630 106.367
139.637 112.358
139.643 118.582
139.650 125.237
139.657 132.141
139.664 139.514
139.670 147.151
139.677 155.295
139.684 163.719
139.691 172.686
139.697 181.948
139.704 191.644
139.711 201.787
139.717 212.550
139.724 223.629
139.731 235.366
139.738 247.425
139.744 260.177
139.751 273.257
139.758 286.856
139.765 300.981
139.778 331.070
139.792 363.367
139.805 397.897
139.818 434.381
139.827 458.948
139.836 484.405
139.853 537.924
139.870 594.763
139.887 654.314
139.901 703.259
139.914 753.696
139.941 857.710
139.995 1072.05
140.022 1176.83
140.049 1275.40
140.066 1333.90
140.083 1387.59
140.097 1426.33
140.110 1461.47
140.124 1492.68
140.137 1519.48
140.151 1542.02
140.164 1559.88
140.178 1573.56
140.193 1581.57
140.200 1583.43
140.203 1583.73
140.210 1583.56
140.218 1581.70
140.234 1572.94
140.248 1558.88
140.263 1539.43
140.277 1514.19
140.292 1483.80
140.307 1448.63
140.321 1409.06
140.347 1331.68
140.372 1245.38
140.402 1136.98
140.431 1024.13
140.463 899.486
140.495 778.450
140.510 724.942
140.524 673.160
140.539 623.342
140.554 575.682
140.568 530.333
140.583 487.408
140.598 446.980
140.612 409.338
140.627 373.972
140.642 341.126
140.649 325.530
140.657 310.752
140.664 296.376
140.671 282.780
140.679 269.582
140.686 257.124
140.693 245.053
140.701 233.681
140.708 222.681
140.715 212.337
140.723 202.481
140.730 193.096
140.742 178.540
140.754 165.273
140.766 153.099
140.772 147.399
140.778 141.946
140.784 136.732
140.790 131.747
140.796 126.984
140.802 122.434
140.808 118.089
140.814 113.941
140.820 109.982
140.826 106.204
140.832 102.542
140.838 99.1082
140.844 95.8339
140.850 92.7124
140.856 89.7370
140.862 86.9011
140.874 81.6231
140.886 76.8307
140.898 72.4793
140.910 68.5278
140.922 64.9379
140.930 62.8890
140.937 60.9820
140.944 59.1573
140.952 57.4578
140.959 55.8303
140.966 54.3129
140.974 52.8585
140.981 51.5009
140.988 50.1981
140.996 48.9805
141.010 46.7153
141.025 44.6733
141.040 42.8266
141.054 41.1507
141.069 39.6245
141.084 38.2296
141.099 36.9498
141.113 35.7715
141.128 34.6827
141.143 33.6731
141.157 32.7400
141.175 31.7081
141.192 30.7584
141.209 29.8708
141.227 29.0479
141.244 28.2736
141.261 27.5513
141.279 26.8678
141.296 26.2269
141.313 25.6176
141.331 25.0439
141.348 24.4965
141.365 23.9792
141.400 23.0148
141.435 22.1366
141.464 21.4514
141.494 20.8140
141.523 20.2197
141.552 19.6659
141.582 19.1451
141.611 18.6563
141.641 18.1964
141.670 17.7645
141.699 17.3554
141.729 16.9686
141.758 16.6024
141.787 16.2563
141.817 15.9267
141.846 15.6133
141.876 15.3150
141.905 15.0317
141.964 14.5017
142.022 14.0182
142.081 13.5741
142.140 13.1660
142.199 12.7886
142.257 12.4397
142.316 12.1151
142.375 11.8134
142.428 11.5560
142.482 11.3141
142.535 11.0860
142.589 10.8706
142.642 10.6667
142.695 10.4735
142.749 10.2901
142.802 10.1158
142.856 9.94992
142.909 9.79182
142.962 9.64096
143.016 9.49685
143.123 9.22710
143.229 8.97935
143.347 8.72898
143.464 8.49895
143.582 8.28675
143.699 8.09023
143.817 7.90759
143.934 7.73729
144.052 7.57803
144.169 7.42880
144.276 7.30068
144.383 7.17935
144.490 7.06408
144.597 6.95433
144.703 6.84963
144.810 6.74958
144.917 6.65386
145.024 6.56212
145.237 6.38948
145.451 6.22961
145.665 6.08079
145.878 5.94162
146.038 5.84279
146.199 5.74833
146.359 5.65781
146.519 5.57089
146.679 5.48723
146.840 5.40669
147.160 5.25395
147.480 5.11049
147.801 4.97502
148.121 4.84660
148.442 4.72430
148.698 4.63033
148.954 4.53948
149.467 4.36585
149.980 4.20143
150.492 4.04466
151.005 3.89438
151.518 3.74985
152.031 3.60938
152.543 3.47288
153.013 3.35077
153.483 3.23111
153.953 3.11361
154.423 2.99814
155.363 2.77211
156.303 2.55186
157.243 2.33647
158.183 2.12566
159.123 1.91938
160.063 1.71801
160.746 1.57515
161.430 1.43586
162.113 1.30082
162.797 1.17094
163.481 1.04711
163.822 0.987894
164.164 0.930985
164.506 0.876484
164.848 0.824646
165.190 0.775759
165.531 0.730107
165.724 0.705994
165.916 0.683156
166.108 0.661665
166.300 0.641599
166.493 0.623015
166.685 0.606026
166.781 0.598151
166.877 0.590725
166.973 0.583754
167.069 0.577253
167.187 0.569966
167.304 0.563432
167.422 0.557680
167.539 0.552740
167.657 0.548644
167.774 0.545427
167.892 0.543123
168.009 0.541771
168.098 0.541402
168.186 0.541607
168.274 0.542400
168.362 0.543801
168.450 0.545830
168.538 0.548502
168.582 0.550089
168.626 0.551841
168.670 0.553769
168.714 0.555867
168.754 0.557934
168.794 0.560143
168.835 0.562510
168.875 0.565023
168.901 0.566786
168.947 0.569945
168.992 0.573309
169.035 0.576670
169.078 0.580210
169.120 0.583939
169.163 0.587860
169.206 0.591987
169.248 0.596301
169.334 0.605535
169.390 0.612049
169.446 0.618927
169.502 0.626175
169.558 0.633787
169.614 0.641797
169.670 0.650201
169.726 0.659005
169.782 0.668202
169.839 0.677832
169.895 0.687889
169.951 0.698380
170.007 0.709296
170.063 0.720684
170.119 0.732534
170.175 0.744856
170.231 0.757636
170.327 0.780740
170.423 0.805314
170.519 0.831436
170.568 0.845109
170.616 0.859162
170.664 0.873659
170.712 0.888579
170.760 0.903931
170.808 0.919689
170.904 0.952583
171.000 0.987326
171.059 1.00953
171.118 1.03242
171.176 1.05610
171.235 1.08051
171.294 1.10574
171.353 1.13173
171.470 1.18623
171.588 1.24415
171.705 1.30567
171.823 1.37094
171.940 1.44013
172.058 1.51345
172.175 1.59108
172.293 1.67322
172.410 1.76011
172.528 1.85195
172.645 1.94901
172.763 2.05154
172.880 2.15970
172.997 2.27398
173.115 2.39458
173.232 2.52183
173.350 2.65607
173.467 2.79766
173.585 2.94700
173.702 3.10450
173.820 3.27048
173.921 3.42128
174.023 3.57917
174.124 3.74446
174.226 3.91728
174.327 4.09832
174.429 4.28777
174.530 4.48604
174.632 4.69339
174.733 4.91067
174.835 5.13818
174.936 5.37644
175.038 5.62573
175.139 5.88711
175.240 6.16067
175.342 6.44760
175.443 6.74801
175.561 7.11427
175.678 7.50117
175.796 7.90999
175.913 8.34213
176.031 8.79905
176.148 9.28238
176.266 9.79382
176.383 10.3353
176.501 10.9087
176.618 11.5163
176.736 12.1604
176.853 12.8434
176.971 13.5681
177.088 14.3372
177.206 15.1540
177.323 16.0214
177.441 16.9448
177.558 17.9282
177.676 18.9762
177.793 20.0939
177.911 21.2867
178.028 22.5607
178.146 23.9223
178.263 25.3790
178.381 26.9389
178.498 28.6109
178.616 30.4051
178.733 32.3308
178.851 34.4034
178.968 36.6352
179.086 39.0414
179.203 41.6367
179.321 44.4448
179.438 47.4851
179.556 50.7820
179.673 54.3628
179.791 58.2589
179.908 62.5057
180.026 67.1437
180.143 72.2192
180.261 77.7856
180.378 83.9042
180.496 90.6461
180.554 94.2794
180.613 98.0942
180.672 102.116
180.731 106.345
180.789 110.810
180.848 115.512
180.907 120.484
180.966 125.728
181.024 131.274
181.083 137.143
181.136 142.784
181.190 148.733
181.243 155.012
181.297 161.644
181.350 168.656
181.403 176.076
181.457 183.935
181.510 192.266
181.564 201.107
181.617 210.498
181.670 220.485
181.724 231.117
181.777 242.450
181.831 254.546
181.884 267.472
181.937 281.303
181.996 297.684
182.055 315.360
182.114 334.536
182.172 355.309
182.231 377.932
182.290 402.541
182.349 429.461
182.407 458.878
182.466 491.215
182.525 526.735
182.584 565.995
182.642 609.368
182.672 632.845
182.701 657.602
182.731 683.732
182.760 711.237
182.789 740.415
182.819 771.292
182.848 803.999
182.877 838.556
182.907 875.353
182.936 914.446
182.966 956.020
182.995 1000.13
183.024 1047.29
183.054 1097.60
183.083 1151.34
183.112 1208.60
183.142 1270.09
183.171 1335.98
183.201 1406.66
183.230 1482.29
183.259 1563.85
183.289 1651.59
183.318 1746.05
183.347 1847.48
183.377 1957.19
183.406 2075.53
183.436 2203.21
183.465 2340.48
183.494 2489.06
183.524 2649.29
183.553 2821.97
183.582 3007.21
183.612 3207.04
183.641 3421.52
183.671 3651.26
183.700 3895.87
183.729 4157.34
183.759 4434.01
183.788 4727.62
183.817 5035.80
183.848 5379.06
183.879 5736.50
183.941 6489.38
184.065 8063.30
184.107 8579.81
184.149 9067.44
184.191 9515.45
184.233 9908.88
184.275 10237.6
184.316 10489.8
184.337 10584.8
184.358 10658.1
184.379 10709.0
184.400 10737.2
184.426 10740.4
184.447 10717.3
184.468 10671.7
184.489 10604.0
184.510 10514.8
184.551 10274.8
184.593 9961.59
184.635 9584.17
184.677 9156.33
184.719 8689.83
184.761 8197.31
184.840 7228.62
184.880 6748.43
184.920 6280.37
184.960 5828.94
185.000 5400.59
185.039 4997.08
185.079 4620.15
185.120 4262.10
185.161 3932.67
185.202 3631.08
185.222 3490.34
185.242 3356.06
185.263 3228.02
185.283 3105.99
185.304 2989.75
185.324 2879.06
185.344 2773.68
185.365 2673.36
185.405 2487.44
185.446 2318.54
185.487 2165.41
185.528 2026.42
185.569 1900.09
185.609 1785.10
185.650 1680.23
185.691 1584.41
185.732 1496.89
185.763 1433.96
185.795 1375.19
185.826 1320.08
185.858 1268.34
185.889 1219.69
185.921 1173.90
185.952 1130.75
185.984 1090.05
186.015 1051.49
186.047 1015.16
186.078 980.775
186.110 948.203
186.173 888.003
186.236 833.676
186.277 801.269
186.318 770.835
186.358 742.215
186.399 715.267
186.440 689.861
186.481 665.881
186.522 643.222
186.562 621.785
186.603 601.485
186.644 582.241
186.726 546.634
186.807 514.452
186.889 485.296
186.970 458.730
187.052 434.480
187.133 412.279
187.215 391.925
187.297 373.169
187.378 355.867
187.460 339.869
187.541 325.060
187.623 311.290
187.704 298.474
187.786 286.523
187.868 275.372
187.949 264.925
188.031 255.133
188.112 245.942
188.194 237.313
188.275 229.182
188.357 221.518
188.439 214.287
188.520 207.463
188.602 200.999
188.683 194.878
188.765 189.076
188.846 183.575
189.010 173.367
189.173 164.124
189.336 155.715
189.499 148.048
189.662 141.027
189.825 134.587
189.989 128.655
190.152 123.185
190.263 119.690
190.374 116.376
190.485 113.224
190.597 110.229
190.819 104.660
191.042 99.5996
191.264 94.9752
191.487 90.7347
191.709 86.8367
191.931 83.2468
192.095 80.7886
192.258 78.4665
192.421 76.2701
192.584 74.1913
192.747 72.2191
192.910 70.3482
193.074 68.5692
193.237 66.8779
193.563 63.7314
193.889 60.8676
194.216 58.2518
194.542 55.8546
194.868 53.6510
195.195 51.6194
195.521 49.7413
195.847 48.0007
196.173 46.3837
196.500 44.8781
196.826 43.4739
197.152 42.1644
197.508 40.8295
197.864 39.5799
198.220 38.4106
198.576 37.3153
198.932 36.2868
199.288 35.3199
199.644 34.4087
200.000 33.5482
200.301 32.8582
200.601 32.2008
201.203 30.9732
201.804 29.8491
202.406 28.8167
203.007 27.8692
203.608 26.9887
204.210 26.1715
204.811 25.4119
205.284 24.8516
205.756 24.3205
206.229 23.8162
206.701 23.3373
207.174 22.8816
207.646 22.4471
208.119 22.0329
208.591 21.6375
209.064 21.2592
209.536 20.8973
210.481 20.2181
211.426 19.5925
212.371 19.0139
213.316 18.4771
214.261 17.9775
215.206 17.5110
216.151 17.0744
217.096 16.6645
218.041 16.2787
218.986 15.9147
219.931 15.5704
220.833 15.2601
221.735 14.9635
222.637 14.6810
223.539 14.4092
224.441 14.1504
225.343 13.9023
226.245 13.6627
227.147 13.4334
228.951 12.9979
230.755 12.5916
231.657 12.3970
232.559 12.2088
234.363 11.8464
235.566 11.6149
236.769 11.3903
237.972 11.1717
239.174 10.9584
240.377 10.7496
241.580 10.5448
242.782 10.3434
243.985 10.1449
245.703 9.86481
247.421 9.58743
248.281 9.44919
249.140 9.31102
250.858 9.03389
252.576 8.75411
253.435 8.61274
254.294 8.46978
255.153 8.32544
256.012 8.17899
256.871 8.03070
257.730 7.87955
258.675 7.70989
259.620 7.53624
260.565 7.35806
261.510 7.17478
262.455 6.98578
263.400 6.79036
264.345 6.58778
265.290 6.37725
266.107 6.18826
266.923 5.99203
267.739 5.78782
268.147 5.68251
268.555 5.57495
268.963 5.46499
269.371 5.35256
269.779 5.23752
270.187 5.11986
270.595 4.99945
271.003 4.87634
271.411 4.74999
271.819 4.62043
272.292 4.46630
272.764 4.30765
273.237 4.14432
273.709 3.97619
274.182 3.80316
274.654 3.62520
275.127 3.44232
275.599 3.25468
276.050 3.07127
276.276 2.97815
276.501 2.88415
276.727 2.78935
276.952 2.69386
277.178 2.59779
277.403 2.50128
277.629 2.40447
277.855 2.30764
278.080 2.21100
278.306 2.11483
278.531 2.01946
278.757 1.92528
278.982 1.83276
279.208 1.74247
279.412 1.66329
279.616 1.58717
279.820 1.51476
280.024 1.44686
280.228 1.38435
280.432 1.32840
280.534 1.30327
280.636 1.28029
280.738 1.25967
280.840 1.24162
280.947 1.22566
281.001 1.21895
281.055 1.21313
281.108 1.20825
281.162 1.20436
281.216 1.20150
281.269 1.19971
281.323 1.19905
281.377 1.19957
281.430 1.20133
281.484 1.20439
281.538 1.20880
281.592 1.21464
281.645 1.22197
281.699 1.23085
281.741 1.23888
281.782 1.24792
281.824 1.25801
281.865 1.26921
281.907 1.28154
281.949 1.29506
281.990 1.30980
282.032 1.32582
282.069 1.34143
282.107 1.35816
282.145 1.37604
282.182 1.39511
282.220 1.41542
282.257 1.43695
282.306 1.46668
282.354 1.49863
282.402 1.53296
282.451 1.56977
282.499 1.60926
282.547 1.65139
282.596 1.69636
282.644 1.74429
282.703 1.80719
282.733 1.84052
282.762 1.87500
282.792 1.91090
282.821 1.94801
282.851 1.98649
282.880 2.02637
282.910 2.06785
282.939 2.11068
282.969 2.15505
282.998 2.20099
283.028 2.24873
283.057 2.29797
283.087 2.34894
283.116 2.40168
283.146 2.45642
283.175 2.51287
283.205 2.57145
283.235 2.63183
283.264 2.69447
283.294 2.75902
283.323 2.82574
283.353 2.89471
283.382 2.96624
283.412 3.03991
283.441 3.11604
283.471 3.19470
283.500 3.27625
283.530 3.36022
283.589 3.53659
283.648 3.72510
283.707 3.92625
283.766 4.14087
283.825 4.36943
283.884 4.61369
283.943 4.87430
284.002 5.15237
284.061 5.44861
284.121 5.76533
284.180 6.10286
284.239 6.46388
284.298 6.84884
284.357 7.26086
284.416 7.70050
284.475 8.17141
284.534 8.67434
284.593 9.21354
284.652 9.79100
284.711 10.4098
284.770 11.0721
284.829 11.7840
284.888 12.5470
284.947 13.3682
285.006 14.2498
285.065 15.2004
285.125 16.2245
285.184 17.3289
285.243 18.5192
285.302 19.8078
285.361 21.1997
285.420 22.7102
285.479 24.3461
285.538 26.1264
285.597 28.0635
285.656 30.1747
285.715 32.4757
285.774 34.9965
285.833 37.7542
285.863 39.2376
285.892 40.7877
285.922 42.4139
285.951 44.1209
285.981 45.9200
286.010 47.8047
286.040 49.7867
286.069 51.8727
286.099 54.0772
286.129 56.3930
286.158 58.8356
286.188 61.4142
286.217 64.1479
286.247 67.0292
286.276 70.0789
286.306 73.3098
286.335 76.7483
286.365 80.3867
286.394 84.2538
286.424 88.3686
286.452 92.5534
286.480 97.0045
286.508 101.745
286.537 106.800
286.565 112.198
286.593 117.971
286.621 124.154
286.649 130.787
286.678 137.913
286.706 145.584
286.734 153.856
286.762 162.792
286.790 172.465
286.819 182.956
286.847 194.357
286.875 206.727
286.904 220.975
286.934 236.570
286.963 253.731
286.993 272.653
287.023 293.632
287.037 304.948
287.052 316.776
287.067 329.314
287.082 342.429
287.096 356.340
287.111 370.900
287.126 386.350
287.141 402.642
287.155 419.822
287.170 437.816
287.185 456.921
287.200 477.071
287.215 498.324
287.229 520.581
287.244 544.205
287.259 569.111
287.274 595.360
287.288 622.825
287.303 651.944
287.318 682.388
287.333 714.636
287.347 748.318
287.362 783.957
287.377 821.394
287.392 860.690
287.406 901.624
287.421 944.809
287.436 989.716
287.451 1037.01
287.465 1086.10
287.495 1191.49
287.525 1305.46
287.554 1428.49
287.584 1560.61
287.605 1662.54
287.627 1769.11
287.648 1880.14
287.669 1994.86
287.712 2236.85
287.755 2490.84
287.873 3217.81
287.905 3406.96
287.936 3588.81
287.968 3761.76
287.999 3921.96
288.020 4024.01
288.042 4118.17
288.064 4203.64
288.085 4279.40
288.107 4345.49
288.128 4400.75
288.150 4445.23
288.171 4478.13
288.200 4503.95
288.215 4509.02
288.238 4505.84
288.262 4488.65
288.285 4457.70
288.308 4413.59
288.332 4356.49
288.355 4287.54
288.379 4206.93
288.402 4116.23
288.446 3921.36
288.490 3700.16
288.534 3459.91
288.578 3208.49
288.667 2685.92
288.712 2432.72
288.757 2191.35
288.779 2076.22
288.802 1965.23
288.824 1858.63
288.847 1756.61
288.869 1659.29
288.891 1566.75
288.914 1478.99
288.936 1395.99
288.954 1334.76
288.971 1276.65
288.988 1221.24
289.005 1168.47
289.023 1118.27
289.040 1070.55
289.057 1025.24
289.075 982.242
289.092 941.475
289.109 902.843
289.127 866.253
289.144 831.613
289.161 798.830
289.178 767.811
289.196 738.467
289.213 710.710
289.235 676.987
289.258 645.602
289.280 616.384
289.303 589.171
289.325 563.811
289.347 540.162
289.370 518.090
289.392 497.471
289.415 478.191
289.437 460.143
289.459 443.230
289.482 427.363
289.504 412.458
289.527 398.440
289.549 385.241
289.571 372.796
289.594 361.049
289.616 349.947
289.639 339.442
289.661 329.490
289.706 311.088
289.751 294.462
289.795 279.377
289.840 265.637
289.885 253.076
289.930 241.555
289.975 230.954
290.019 221.172
290.064 212.120
290.109 203.723
290.154 195.916
290.199 188.640
290.243 181.846
290.288 175.489
290.333 169.531
290.378 163.937
290.423 158.676
290.467 153.720
290.512 149.046
290.557 144.631
290.602 140.454
290.647 136.508
290.691 132.758
290.736 129.198
290.826 122.597
290.915 116.611
291.005 111.163
291.095 106.187
291.184 101.628
291.274 97.4363
291.363 93.5730
291.433 90.7875
291.502 88.1665
291.571 85.6929
291.640 83.3553
291.710 81.1402
291.779 79.0444
291.848 77.0561
291.917 75.1675
291.986 73.3692
292.056 71.6599
292.194 68.4777
292.333 65.5755
292.471 62.9236
292.561 61.3252
292.650 59.8116
292.740 58.3765
292.829 57.0143
292.919 55.7198
293.009 54.4883
293.098 53.3155
293.188 52.1974
293.367 50.1115
293.546 48.2053
293.725 46.4574
293.905 44.8495
294.100 43.2367
294.296 41.7548
294.491 40.3890
294.686 39.1274
294.882 37.9579
295.077 36.8724
295.273 35.8612
295.468 34.9177
295.647 34.1055
295.827 33.3398
296.006 32.6171
296.185 31.9339
296.364 31.2873
296.543 30.6745
296.723 30.0930
296.902 29.5408
297.081 29.0151
297.260 28.5146
297.439 28.0373
297.619 27.5818
297.798 27.1467
297.977 26.7305
298.335 25.9507
298.694 25.2335
299.052 24.5719
299.410 23.9598
299.769 23.3919
300.127 22.8633
300.485 22.3705
300.844 21.9096
301.202 21.4778
301.512 21.1263
301.821 20.7934
302.131 20.4777
302.440 20.1769
302.750 19.8901
303.059 19.6164
303.369 19.3552
303.678 19.1055
303.988 18.8667
304.297 18.6381
304.607 18.4189
304.916 18.2086
305.535 17.8125
306.154 17.4459
306.513 17.2459
306.871 17.0541
307.229 16.8700
307.588 16.6932
308.304 16.3595
309.021 16.0500
309.738 15.7618
310.455 15.4929
311.171 15.2412
311.888 15.0050
312.377 14.8520
312.865 14.7051
313.354 14.5640
313.843 14.4281
314.820 14.1712
315.798 13.9330
316.775 13.7096
317.752 13.5003
318.730 13.3036
319.707 13.1183
320.424 12.9892
321.140 12.8650
321.857 12.7456
322.574 12.6308
323.291 12.5201
324.007 12.4132
325.441 12.2104
326.874 12.0204
328.308 11.8419
329.741 11.6736
331.175 11.5142
332.283 11.3968
333.390 11.2837
334.498 11.1748
335.606 11.0697
336.713 10.9685
337.821 10.8705
338.929 10.7748
340.036 10.6823
342.252 10.5045
344.467 10.3357
346.682 10.1746
348.898 10.0202
351.243 9.86302
353.589 9.71128
355.935 9.56405
358.281 9.42051
360.626 9.27994
362.972 9.14164
365.318 9.00495
367.663 8.86923
370.009 8.73375
372.355 8.59779
374.700 8.46060
375.873 8.39141
377.046 8.32139
378.219 8.25088
379.392 8.17927
380.565 8.10686
381.737 8.03323
382.910 7.95857
384.083 7.88222
385.256 7.80422
386.429 7.72435
387.862 7.62383
389.296 7.51973
390.729 7.41145
392.163 7.29834
392.879 7.23976
393.596 7.17969
394.313 7.11797
395.030 7.05455
395.746 6.98924
396.463 6.92187
397.180 6.85232
397.897 6.78058
398.613 6.70621
399.330 6.62889
400.047 6.54848
400.764 6.46472
401.480 6.37727
402.197 6.28579
402.914 6.18988
403.630 6.08906
404.315 5.98777
404.999 5.88105
405.341 5.82546
405.683 5.76829
406.025 5.70944
406.367 5.64884
406.709 5.58637
407.051 5.52192
407.393 5.45540
407.735 5.38670
408.077 5.31565
408.420 5.24216
408.762 5.16614
409.104 5.08739
409.462 5.00163
409.820 4.91235
410.179 4.81936
410.537 4.72246
410.896 4.62132
411.254 4.51567
411.612 4.40521
411.971 4.28964
412.329 4.16854
412.508 4.10581
412.687 4.04156
412.867 3.97575
413.046 3.90832
413.225 3.83923
413.404 3.76846
413.583 3.69589
413.763 3.62151
413.942 3.54527
414.121 3.46713
414.300 3.38706
414.479 3.30502
414.659 3.22099
414.838 3.13501
415.033 3.03887
415.229 2.94035
415.424 2.83950
415.620 2.73645
415.815 2.63123
416.010 2.52418
416.206 2.41549
416.401 2.30571
416.581 2.20450
416.760 2.10340
416.939 2.00317
417.118 1.90484
417.208 1.85679
417.297 1.80973
417.387 1.76390
417.477 1.71956
417.566 1.67701
417.656 1.63660
417.745 1.59871
417.835 1.56386
417.941 1.52719
418.047 1.49647
418.153 1.47289
418.206 1.46422
418.258 1.45792
418.311 1.45418
418.364 1.45328
418.417 1.45547
418.470 1.46105
418.523 1.47038
418.576 1.48376
418.629 1.50162
418.682 1.52440
418.724 1.54619
418.765 1.57155
418.807 1.60087
418.849 1.63434
418.891 1.67244
418.932 1.71535
418.974 1.76368
419.016 1.81762
419.067 1.89207
419.075 1.90481
419.106 1.95516
419.134 2.00575
419.163 2.05998
419.191 2.11806
419.220 2.18020
419.258 2.27152
419.297 2.37142
419.336 2.48062
419.374 2.59957
419.413 2.72975
419.452 2.87178
419.471 2.94778
419.490 3.02673
419.510 3.10918
419.529 3.19528
419.550 3.29521
419.572 3.40006
419.593 3.51007
419.615 3.62551
419.636 3.74667
419.657 3.87383
419.679 4.00731
419.700 4.14678
419.721 4.29392
419.743 4.44846
419.764 4.61081
419.786 4.78061
419.807 4.95991
419.828 5.14845
419.850 5.34676
419.871 5.55444
419.893 5.78460
419.916 6.02758
419.938 6.28424
419.961 6.55551
419.983 6.84238
420.005 7.14597
420.028 7.46748
420.050 7.80823
420.069 8.10355
420.087 8.41198
420.105 8.73603
420.124 9.07671
420.142 9.43715
420.160 9.81464
420.179 10.2124
420.197 10.6319
420.215 11.0771
420.234 11.5449
420.252 12.0396
420.270 12.5632
420.289 13.1212
420.307 13.7098
420.325 14.3349
420.343 14.9993
420.363 15.7503
420.382 16.5494
420.402 17.4094
420.421 18.3269
420.440 19.3171
420.460 20.3762
420.479 21.5224
420.498 22.7515
420.518 24.0850
420.537 25.5187
420.556 27.0780
420.576 28.7582
420.595 30.5896
420.614 32.5670
420.634 34.7147
420.653 37.0492
420.664 38.4966
420.675 40.0167
420.687 41.6135
420.698 43.2910
420.709 45.0537
420.720 46.9060
420.731 48.8527
420.743 50.8989
420.754 53.0496
420.765 55.3102
420.776 57.6865
420.787 60.1843
420.799 62.8096
420.810 65.5689
420.821 68.4687
420.832 71.4879
420.843 74.7173
420.855 78.0806
420.866 81.6130
420.877 85.3225
420.888 89.2170
420.899 93.3048
420.911 97.5943
420.922 102.094
420.933 106.813
420.944 111.761
420.955 116.946
420.967 122.379
420.978 128.068
420.989 134.023
421.000 140.255
421.011 146.773
421.023 153.587
421.034 160.708
421.045 168.146
421.056 175.910
421.079 192.459
421.101 210.435
421.123 229.918
421.146 250.982
421.168 273.698
421.191 298.131
421.213 324.338
421.235 352.369
421.258 382.261
421.280 414.041
421.303 447.721
421.325 483.298
421.347 520.753
421.370 559.868
421.391 599.065
421.412 639.821
421.434 682.051
421.455 725.649
421.498 816.439
421.541 910.759
421.630 1113.66
421.675 1213.83
421.720 1309.47
421.765 1398.27
421.809 1477.58
421.832 1512.78
421.854 1544.86
421.876 1573.56
421.898 1598.58
421.922 1621.15
421.945 1639.20
421.969 1652.67
421.992 1661.46
422.000 1663.33
422.008 1664.69
422.033 1665.40
422.059 1660.50
422.084 1650.09
422.110 1634.28
422.135 1613.46
422.161 1587.76
422.186 1557.47
422.211 1522.91
422.237 1483.03
422.263 1439.58
422.290 1392.69
422.316 1343.20
422.368 1237.64
422.420 1127.01
422.492 973.989
422.527 898.842
422.563 826.043
422.589 774.245
422.615 724.409
422.641 676.344
422.667 630.571
422.694 586.854
422.720 545.606
422.746 506.560
422.772 470.028
422.798 435.722
422.824 403.868
422.851 374.168
422.877 346.776
422.903 321.397
422.929 298.128
422.942 287.173
422.955 276.762
422.968 266.721
422.981 257.190
423.004 241.603
423.026 227.203
423.049 213.913
423.071 201.713
423.094 190.423
423.117 180.031
423.139 170.469
423.162 161.710
423.184 153.617
423.207 146.172
423.230 139.322
423.252 133.042
423.275 127.230
423.297 121.871
423.320 116.925
423.342 112.375
423.369 107.502
423.395 103.056
423.421 98.9610
423.447 95.2095
423.473 91.7383
423.499 88.5432
423.525 85.5726
423.552 82.8249
423.578 80.2577
423.604 77.8717
423.630 75.6318
423.656 73.5404
423.682 71.5682
423.708 69.7188
423.735 67.9743
423.761 66.3254
423.792 64.4861
423.822 62.7580
423.853 61.1308
423.884 59.5954
423.915 58.1440
423.946 56.7696
423.977 55.4659
424.008 54.2274
424.070 51.9269
424.131 49.8343
424.193 47.9223
424.255 46.1710
424.307 44.7958
424.360 43.5103
424.412 42.3062
424.464 41.1760
424.516 40.1132
424.569 39.1119
424.621 38.1671
424.673 37.2758
424.726 36.4306
424.778 35.6294
424.830 34.8691
424.882 34.1467
424.935 33.4593
424.987 32.8047
425.092 31.5858
425.196 30.4722
425.301 29.4520
425.405 28.5141
425.510 27.6500
425.614 26.8500
425.719 26.1088
425.824 25.4189
425.928 24.7765
426.023 24.2287
426.118 23.7129
426.213 23.2263
426.308 22.7671
426.403 22.3322
426.498 21.9204
426.594 21.5292
426.689 21.1580
426.784 20.8044
426.879 20.4677
426.974 20.1468
427.069 19.8407
427.164 19.5480
427.259 19.2684
427.449 18.7441
427.554 18.4739
427.658 18.2156
427.867 17.7321
428.077 17.2876
428.286 16.8780
428.495 16.4990
428.704 16.1476
428.913 15.8207
429.122 15.5158
429.274 15.3066
429.426 15.1072
429.578 14.9169
429.731 14.7352
429.883 14.5613
430.035 14.3949
430.339 14.0824
430.643 13.7940
430.947 13.5269
431.252 13.2790
431.556 13.0481
431.765 12.8984
431.974 12.7554
432.183 12.6187
432.392 12.4878
432.602 12.3623
432.811 12.2420
433.229 12.0154
433.647 11.8056
434.065 11.6106
434.484 11.4289
434.902 11.2590
435.168 11.1564
435.434 11.0578
435.967 10.8717
436.499 10.6986
437.031 10.5374
437.564 10.3866
438.096 10.2448
438.628 10.1110
439.161 9.98453
439.579 9.88985
439.997 9.79894
440.416 9.71152
440.834 9.62735
441.252 9.54616
441.670 9.46774
442.507 9.31850
443.344 9.17823
444.180 9.04581
445.017 8.92024
445.853 8.80068
446.500 8.71194
447.146 8.62608
447.792 8.54282
448.439 8.46196
449.732 8.30681
451.024 8.15834
452.317 8.01575
453.610 7.87801
454.903 7.74421
456.196 7.61354
457.108 7.52282
458.021 7.43308
458.934 7.34411
459.846 7.25574
461.519 7.09468
463.192 6.93396
464.865 6.77260
466.538 6.60966
468.212 6.44425
469.885 6.27541
471.558 6.10223
473.231 5.92378
474.676 5.76454
476.121 5.59985
477.566 5.42896
478.288 5.34096
479.011 5.25106
479.733 5.15915
480.456 5.06521
481.178 4.96891
481.900 4.87039
482.623 4.76933
483.345 4.66595
484.068 4.55947
484.790 4.44999
485.627 4.31927
486.463 4.18409
487.300 4.04413
488.136 3.89913
488.973 3.74876
489.810 3.59272
490.646 3.43069
491.483 3.26237
492.281 3.09554
492.680 3.00981
493.080 2.92252
493.479 2.83362
493.878 2.74313
494.277 2.65100
494.677 2.55728
495.076 2.46194
495.475 2.36501
495.875 2.26654
496.274 2.16660
496.673 2.06523
497.072 1.96257
497.472 1.85873
497.871 1.75391
498.403 1.61285
498.935 1.47104
499.468 1.32940
499.734 1.25900
500.000 1.18917
500.346 1.09957
500.692 1.01181
501.037 0.926489
501.383 0.844436
501.729 0.766570
501.902 0.729596
502.075 0.694180
502.247 0.660473
502.420 0.628721
502.593 0.599117
502.766 0.571950
502.907 0.551782
503.048 0.533586
503.189 0.517517
503.329 0.503790
503.470 0.492597
503.611 0.484186
503.752 0.478795
503.822 0.477321
503.893 0.476709
504.005 0.477608
504.117 0.480951
504.173 0.483600
504.229 0.486924
504.285 0.490950
504.341 0.495704
504.386 0.500049
504.431 0.504891
504.450 0.507121
504.495 0.512696
504.578 0.524485
504.661 0.538191
504.744 0.553950
504.828 0.571833
504.911 0.591974
504.994 0.614492
505.077 0.639549
505.160 0.667221
505.244 0.697682
505.327 0.731086
505.397 0.761815
505.468 0.794832
505.538 0.830289
505.609 0.868301
505.679 0.909050
505.749 0.952550
505.820 0.998992
505.890 1.04852
505.961 1.10135
506.031 1.15751
506.102 1.21722
506.172 1.28067
506.242 1.34814
506.313 1.41963
506.383 1.49544
506.454 1.57579
506.524 1.66104
506.595 1.75120
506.665 1.84677
506.735 1.94776
506.806 2.05476
506.876 2.16776
506.947 2.28725
507.017 2.41357
507.088 2.54730
507.158 2.68844
507.228 2.83759
507.299 2.99522
507.369 3.16179
507.440 3.33780
507.510 3.52381
507.580 3.72037
507.632 3.87061
507.683 4.02672
507.734 4.18925
507.785 4.35848
507.837 4.53504
507.888 4.71854
507.939 4.90965
507.990 5.10870
508.093 5.53246
508.195 5.99203
508.298 6.49121
508.400 7.03375
508.502 7.62447
508.554 7.93884
508.605 8.26692
508.656 8.61006
508.707 8.96765
508.759 9.34112
508.810 9.73126
508.861 10.1398
508.912 10.5659
508.963 11.0115
509.015 11.4776
509.066 11.9652
509.117 12.4756
509.168 13.0100
509.219 13.5697
509.290 14.3844
509.360 15.2526
509.431 16.1797
509.501 17.1706
509.572 18.2322
509.642 19.3672
509.712 20.5837
509.783 21.8887
509.853 23.2923
509.924 24.7993
509.994 26.4238
510.065 28.1723
510.135 30.0620
510.206 32.1014
510.276 34.3086
510.346 36.7012
510.417 39.3027
510.487 42.1285
510.558 45.2078
510.628 48.5698
510.699 52.2539
510.769 56.2884
510.839 60.7235
510.910 65.6113
510.945 68.2515
510.980 71.0213
511.015 73.9374
511.051 77.0099
511.086 80.2499
511.121 83.6694
511.156 87.2814
511.191 91.1005
511.227 95.1422
511.262 99.4237
511.297 103.964
511.332 108.784
511.367 113.906
511.403 119.355
511.438 125.160
511.473 131.351
511.508 137.981
511.544 145.050
511.579 152.618
511.614 160.730
511.649 169.464
511.684 178.826
511.720 188.901
511.755 199.760
511.790 211.512
511.825 224.174
511.861 237.870
511.896 252.702
511.931 268.778
511.966 286.220
512.001 305.157
512.037 325.730
512.072 348.156
512.107 372.471
512.142 398.905
512.177 427.639
512.213 458.862
512.248 492.766
512.283 529.551
512.318 569.415
512.354 612.684
512.389 659.304
512.424 709.574
512.459 763.662
512.494 821.712
512.530 883.844
512.565 950.142
512.600 1020.65
512.635 1095.59
512.670 1174.49
512.706 1257.42
512.741 1344.21
512.776 1434.62
512.811 1528.31
512.882 1723.85
513.021 2127.63
513.091 2326.08
513.161 2513.39
513.197 2604.40
513.233 2689.42
513.270 2767.47
513.306 2837.45
513.342 2898.93
513.379 2950.94
513.415 2992.86
513.452 3024.11
513.500 3048.82
513.524 3053.72
513.564 3051.03
513.603 3035.28
513.643 3006.81
513.682 2966.13
513.721 2913.95
513.761 2851.11
513.800 2778.63
513.840 2697.60
513.899 2560.70
513.959 2411.13
514.079 2091.27
514.138 1933.01
514.196 1777.83
514.254 1627.98
514.312 1485.49
514.350 1399.10
514.387 1316.78
514.424 1238.49
514.461 1164.33
514.498 1094.17
514.535 1028.38
514.572 966.711
514.609 909.055
514.639 866.415
514.668 826.105
514.697 788.043
514.726 752.257
514.755 718.407
514.784 686.630
514.814 656.609
514.843 628.453
514.872 601.871
514.901 576.866
514.930 553.346
514.959 531.294
514.989 510.471
515.018 490.937
515.047 472.478
515.076 455.148
515.105 438.755
515.134 423.293
515.164 408.701
515.193 394.964
515.222 381.935
515.251 369.609
515.280 357.939
515.309 346.918
515.339 336.429
515.368 326.473
515.426 308.049
515.485 291.333
515.543 276.166
515.588 265.357
515.633 255.273
515.678 245.847
515.723 237.040
515.768 228.760
515.813 220.982
515.858 213.663
515.903 206.781
515.949 200.271
515.994 194.120
516.039 188.301
516.084 182.799
516.129 177.569
516.174 172.603
516.264 163.401
516.322 157.899
516.381 152.733
516.439 147.860
516.497 143.271
516.556 138.929
516.614 134.829
516.673 130.941
516.731 127.261
516.789 123.762
516.848 120.444
516.964 114.276
517.081 108.675
517.198 103.574
517.314 98.9048
517.431 94.6207
517.548 90.6788
517.664 87.0447
517.781 83.6802
517.898 80.5630
518.014 77.6632
518.131 74.9646
518.248 72.4434
518.364 70.0856
518.481 67.8762
518.598 65.8040
518.714 63.8540
518.831 62.0177
518.948 60.2859
519.064 58.6519
519.181 57.1054
519.298 55.6411
519.414 54.2530
519.531 52.9367
519.648 51.6849
519.764 50.4942
519.881 49.3605
519.998 48.2807
520.231 46.2650
520.464 44.4242
520.698 42.7359
520.931 41.1839
521.164 39.7517
521.398 38.4276
521.631 37.1995
521.864 36.0579
522.045 35.2291
522.225 34.4438
522.405 33.6986
522.586 32.9906
522.766 32.3170
522.946 31.6752
523.127 31.0629
523.307 30.4781
523.668 29.3838
524.028 28.3808
524.389 27.4584
524.749 26.6074
524.983 26.0909
525.216 25.5993
525.449 25.1304
525.683 24.6831
525.916 24.2556
526.149 23.8469
526.616 23.0806
527.083 22.3758
527.550 21.7251
528.016 21.1226
528.483 20.5629
529.035 19.9503
529.586 19.3848
530.138 18.8608
530.689 18.3737
531.241 17.9198
531.792 17.4958
532.344 17.0973
532.895 16.7218
533.362 16.4206
533.829 16.1333
534.295 15.8587
534.762 15.5959
535.229 15.3438
535.695 15.1017
536.162 14.8686
536.629 14.6439
537.096 14.4268
537.562 14.2168
538.029 14.0133
538.496 13.8157
538.962 13.6235
539.429 13.4361
539.896 13.2532
540.362 13.0743
540.872 12.8830
541.381 12.6955
541.890 12.5110
542.399 12.3291
542.993 12.1193
543.587 11.9113
544.181 11.7041
544.775 11.4969
545.369 11.2885
545.963 11.0776
546.557 10.8629
546.854 10.7536
547.151 10.6428
547.533 10.4976
547.914 10.3488
548.296 10.1959
548.678 10.0380
549.060 9.87438
549.442 9.70416
549.633 9.61619
549.824 9.52611
550.015 9.43373
550.205 9.33886
550.439 9.21920
550.672 9.09517
550.906 8.96621
551.139 8.83194
551.372 8.69166
551.606 8.54485
551.839 8.39066
552.072 8.22840
552.253 8.09678
552.433 7.95935
552.613 7.81553
552.794 7.66473
552.974 7.50632
553.064 7.42400
553.154 7.33961
553.244 7.25285
553.334 7.16382
553.425 7.07223
553.515 6.97816
553.631 6.85232
553.748 6.72175
553.865 6.58622
553.981 6.44565
554.098 6.29959
554.156 6.22456
554.215 6.14815
554.273 6.07020
554.331 5.99098
554.390 5.91037
554.448 5.82839
554.498 5.75643
554.549 5.68350
554.599 5.60964
554.650 5.53490
554.700 5.45935
554.750 5.38309
554.801 5.30623
554.851 5.22909
554.902 5.15156
554.952 5.07403
555.002 4.99681
555.053 4.92031
555.103 4.84507
555.154 4.77177
555.204 4.70134
555.254 4.63513
555.313 4.56559
555.342 4.53480
555.371 4.50749
555.400 4.48417
555.429 4.46578
555.459 4.45333
555.488 4.44803
555.517 4.45129
555.546 4.46488
555.575 4.49087
555.604 4.53159
555.634 4.59026
555.663 4.66997
555.692 4.77543
555.721 4.91082
555.735 4.98838
555.749 5.07432
555.763 5.16992
555.777 5.27601
555.791 5.39434
555.805 5.52418
555.818 5.66735
555.832 5.82493
555.846 5.99942
555.860 6.18956
555.874 6.39790
555.888 6.62586
555.902 6.87684
555.916 7.14890
555.930 7.44549
555.944 7.76845
555.958 8.12238
555.972 8.50431
555.986 8.91887
555.999 9.36838
556.013 9.85897
556.027 10.3862
556.041 10.9562
556.055 11.5719
556.069 12.2412
556.083 12.9578
556.097 13.7296
556.111 14.5600
556.125 15.4527
556.139 16.4115
556.153 17.4402
556.166 18.5430
556.180 19.7329
556.194 20.9973
556.208 22.3489
556.222 23.7923
556.236 25.3438
556.250 26.9861
556.264 28.7350
556.278 30.5956
556.292 32.5878
556.306 34.6884
556.320 36.9167
556.334 39.2780
556.347 41.7778
556.361 44.4217
556.375 47.2150
556.389 50.1633
556.405 53.7327
556.421 57.5200
556.437 61.5331
556.453 65.7794
556.471 71.0529
556.490 76.6671
556.509 82.6324
556.527 88.9237
556.542 94.1463
556.556 99.6004
556.571 105.289
556.585 111.174
556.600 117.337
556.615 123.742
556.629 130.389
556.644 137.230
556.673 151.727
556.702 167.177
556.731 183.551
556.760 200.749
556.790 218.832
556.819 237.670
556.848 257.176
556.877 277.175
556.925 310.853
556.972 345.111
557.031 386.825
557.089 426.901
557.118 445.926
557.147 463.943
557.177 480.896
557.206 496.549
557.235 510.735
557.264 523.266
557.301 536.706
557.330 545.145
557.355 550.679
557.379 554.774
557.400 557.144
557.404 557.491
557.418 558.318
557.432 558.680
557.459 558.032
557.481 556.169
557.503 553.143
557.525 548.992
557.547 543.766
557.570 536.827
557.594 528.717
557.638 510.891
557.682 489.772
557.725 465.863
557.769 439.743
557.833 399.010
557.896 356.674
557.940 327.466
557.984 298.841
558.028 271.147
558.071 244.728
558.093 232.054
558.115 219.795
558.137 207.974
558.159 196.659
558.181 185.760
558.202 175.385
558.224 165.444
558.246 156.032
558.267 147.459
558.288 139.324
558.309 131.621
558.330 124.376
558.351 117.509
558.371 111.046
558.392 104.974
558.413 99.3061
558.434 93.9732
558.455 88.9885
558.476 84.3364
558.497 80.0210
558.518 75.9848
558.538 72.2505
558.559 68.7661
558.580 65.5493
558.602 62.4163
558.624 59.5264
558.646 56.8629
558.668 54.4204
558.689 52.1609
558.711 50.0905
558.733 48.1761
558.755 46.4223
558.777 44.8004
558.799 43.3072
558.821 41.9317
558.842 40.6695
558.864 39.4996
558.886 38.4239
558.908 37.4248
558.930 36.5041
558.946 35.8751
558.962 35.2793
558.978 34.7145
558.993 34.1786
559.009 33.6696
559.025 33.1857
559.041 32.7253
559.057 32.2867
559.089 31.4692
559.121 30.7228
559.152 30.0385
559.184 29.4084
559.216 28.8258
559.248 28.2851
559.280 27.7813
559.311 27.3103
559.343 26.8684
559.375 26.4527
559.407 26.0603
559.439 25.6891
559.482 25.2088
559.526 24.7616
559.570 24.3427
559.614 23.9490
559.657 23.5773
559.701 23.2269
559.745 22.8953
559.788 22.5808
559.832 22.2813
559.876 21.9970
559.920 21.7260
559.963 21.4673
560.007 21.2202
560.051 20.9837
560.138 20.5400
560.186 20.3129
560.234 20.0955
560.329 19.6873
560.424 19.3110
560.520 18.9628
560.615 18.6396
560.711 18.3387
560.806 18.0576
560.901 17.7946
560.989 17.5675
561.076 17.3532
561.164 17.1499
561.251 16.9574
561.339 16.7742
561.426 16.6002
561.514 16.4341
561.601 16.2759
561.688 16.1245
561.776 15.9799
561.951 15.7084
562.126 15.4585
562.300 15.2274
562.475 15.0129
562.650 14.8131
562.825 14.6264
563.000 14.4515
563.175 14.2872
563.350 14.1325
563.525 13.9864
563.700 13.8483
563.867 13.7230
564.033 13.6038
564.200 13.4900
564.367 13.3812
564.701 13.1772
565.035 12.9893
565.369 12.8153
565.703 12.6535
566.037 12.5023
566.371 12.3605
566.784 12.1962
567.197 12.0430
567.611 11.8995
568.024 11.7644
568.438 11.6369
568.851 11.5160
569.264 11.4009
569.678 11.2910
570.377 11.1155
571.077 10.9513
571.776 10.7967
572.476 10.6504
573.176 10.5112
573.875 10.3780
574.575 10.2500
575.274 10.1267
576.228 9.96501
577.182 9.80910
578.136 9.65812
579.090 9.51125
580.044 9.36767
580.998 9.22671
581.952 9.08774
582.906 8.95020
584.305 8.74997
585.704 8.55022
587.103 8.34950
588.502 8.14644
589.901 7.93966
591.301 7.72775
592.000 7.61939
592.700 7.50919
593.399 7.39692
594.099 7.28240
595.053 7.12211
596.007 6.95654
596.961 6.78501
597.915 6.60696
598.869 6.42166
599.823 6.22767
600.300 6.12720
600.777 6.02425
601.254 5.91869
601.730 5.81038
602.430 5.64618
603.130 5.47516
603.829 5.29677
604.529 5.11042
604.879 5.01403
605.228 4.91540
605.578 4.81443
605.928 4.71108
606.278 4.60517
606.627 4.49666
606.977 4.38544
607.327 4.27146
607.804 4.11129
608.281 3.94550
608.758 3.77391
609.235 3.59639
609.712 3.41268
610.189 3.22255
610.427 3.12507
610.666 3.02600
610.904 2.92537
611.143 2.82324
611.493 2.67069
611.842 2.51512
612.192 2.35682
612.542 2.19618
612.892 2.03379
613.242 1.87042
613.416 1.78869
613.591 1.70714
613.766 1.62595
613.941 1.54540
614.195 1.42973
614.450 1.31676
614.704 1.20761
614.959 1.10370
615.086 1.05423
615.213 1.00676
615.340 0.961573
615.467 0.918991
615.595 0.879372
615.722 0.843116
615.849 0.810669
615.976 0.782550
616.072 0.764603
616.167 0.749654
616.262 0.737988
616.358 0.729917
616.453 0.725784
616.549 0.725961
616.644 0.730859
616.739 0.740914
616.797 0.749715
616.855 0.760683
616.912 0.773981
616.970 0.789693
617.002 0.799462
617.069 0.822947
617.137 0.850294
617.190 0.875005
617.244 0.902488
617.298 0.932894
617.351 0.966314
617.405 1.00304
617.459 1.04312
617.512 1.08688
617.566 1.13436
617.606 1.17220
617.646 1.21224
617.685 1.25477
617.725 1.29969
617.765 1.34731
617.805 1.39752
617.844 1.45067
617.884 1.50662
617.924 1.56578
617.964 1.62798
618.003 1.69367
618.043 1.76267
618.083 1.83548
618.123 1.91188
618.162 1.99243
618.202 2.07690
618.246 2.17509
618.290 2.27854
618.333 2.38772
618.377 2.50294
618.421 2.62449
618.464 2.75271
618.508 2.88792
618.552 3.03049
618.596 3.18116
618.639 3.33965
618.683 3.50673
618.727 3.68285
618.770 3.86894
618.814 4.06467
618.858 4.27100
618.902 4.48853
618.945 4.71841
618.989 4.96027
619.033 5.21534
619.076 5.48438
619.120 5.76887
619.164 6.06838
619.208 6.38449
619.251 6.71819
619.295 7.07139
619.339 7.44364
619.383 7.83697
619.426 8.25270
619.470 8.69332
619.514 9.15837
619.557 9.65051
619.601 10.1716
619.645 10.7248
619.689 11.3098
619.732 11.9301
619.776 12.5882
619.820 13.2886
619.864 14.0309
619.907 14.8201
619.951 15.6597
619.995 16.5557
620.038 17.5083
620.082 18.5242
620.126 19.6087
620.170 20.7702
620.213 22.0098
620.257 23.3372
620.301 24.7602
620.348 26.4329
620.396 28.2430
620.444 30.2049
620.492 32.3352
620.539 34.6528
620.587 37.1794
620.635 39.9398
620.682 42.9561
620.726 45.9907
620.770 49.2960
620.813 52.9121
620.857 56.8776
620.901 61.2471
620.945 66.0515
620.967 68.6443
620.988 71.3586
621.010 74.2280
621.032 77.2354
621.054 80.4184
621.076 83.7742
621.098 87.3141
621.120 91.0329
621.141 94.9775
621.163 99.1256
621.185 103.530
621.207 108.166
621.229 113.092
621.251 118.306
621.273 123.826
621.294 129.645
621.316 135.836
621.338 142.365
621.360 149.315
621.382 156.646
621.404 164.451
621.426 172.724
621.448 181.491
621.469 190.739
621.491 200.581
621.513 210.959
621.535 221.998
621.557 233.630
621.579 245.995
621.600 259.013
621.622 272.838
621.644 287.376
621.666 302.797
621.688 318.992
621.710 336.145
621.732 354.131
621.752 372.259
621.773 391.280
621.794 411.220
621.815 432.002
621.836 453.847
621.857 476.679
621.878 500.517
621.899 525.254
621.940 578.072
621.982 634.941
622.024 695.981
622.065 761.119
622.109 833.781
622.153 910.330
622.197 990.532
622.240 1073.87
622.328 1247.50
622.415 1424.34
622.503 1596.55
622.546 1678.13
622.590 1755.13
622.648 1848.60
622.706 1929.23
622.735 1964.13
622.764 1994.92
622.794 2021.60
622.823 2043.79
622.861 2066.35
622.900 2080.48
622.919 2084.37
622.951 2086.11
622.982 2082.21
623.014 2072.73
623.045 2057.79
623.077 2037.55
623.108 2012.25
623.140 1982.13
623.171 1947.61
623.217 1890.44
623.262 1825.83
623.307 1754.84
623.353 1678.71
623.440 1522.41
623.527 1360.39
623.598 1228.53
623.669 1101.38
623.705 1040.20
623.741 981.259
623.776 924.592
623.812 870.361
623.855 807.432
623.899 748.593
623.942 693.746
623.986 642.871
624.029 595.888
624.051 573.768
624.073 552.669
624.095 532.374
624.116 513.047
624.138 494.484
624.160 476.830
624.182 459.893
624.203 443.731
624.225 428.314
624.247 413.680
624.269 399.664
624.291 386.309
624.312 373.585
624.334 361.518
624.356 349.970
624.378 338.971
624.399 328.495
624.421 318.561
624.465 300.033
624.508 283.202
624.550 268.534
624.591 255.154
624.633 242.870
624.674 231.628
624.716 221.271
624.757 211.756
624.799 202.954
624.841 194.835
624.882 187.292
624.924 180.303
624.965 173.784
625.007 167.719
625.048 162.037
625.090 156.730
625.131 151.752
625.173 147.073
625.216 142.453
625.260 138.118
625.304 134.026
625.347 130.174
625.391 126.526
625.434 123.082
625.478 119.819
625.521 116.723
625.565 113.775
625.608 110.977
625.695 105.769
625.782 101.028
625.869 96.7008
625.925 94.1350
625.980 91.7036
626.036 89.3966
626.091 87.2051
626.146 85.1208
626.202 83.1365
626.313 79.4409
626.423 76.0709
626.534 72.9866
626.645 70.1543
626.756 67.5476
626.843 65.6372
626.930 63.8391
627.017 62.1441
627.104 60.5456
627.191 59.0326
627.278 57.6018
627.365 56.2440
627.452 54.9568
627.539 53.7323
627.626 52.5675
627.714 51.4583
627.801 50.4022
627.975 48.4307
628.149 46.6290
628.323 44.9759
628.497 43.4558
628.671 42.0532
628.845 40.7553
629.019 39.5512
629.193 38.4314
629.368 37.3878
629.542 36.4130
629.700 35.5809
629.858 34.7961
630.017 34.0547
630.175 33.3530
630.333 32.6881
630.491 32.0572
630.650 31.4578
630.808 30.8877
630.966 30.3448
631.125 29.8274
631.283 29.3337
631.441 28.8622
631.758 27.9801
632.074 27.1713
632.249 26.7541
632.423 26.3553
632.771 25.6079
633.119 24.9206
633.467 24.2867
633.816 23.6999
634.164 23.1555
634.512 22.6491
634.860 22.1768
635.113 21.8527
635.367 21.5438
635.620 21.2490
635.873 20.9676
636.127 20.6986
636.380 20.4412
636.886 19.9579
637.393 19.5120
637.899 19.0994
638.406 18.7168
638.912 18.3610
639.261 18.1305
639.609 17.9105
639.957 17.7004
640.305 17.4994
641.002 17.1227
641.698 16.7761
642.395 16.4560
643.091 16.1594
643.788 15.8837
644.484 15.6267
645.371 15.3237
646.257 15.0444
647.143 14.7862
648.030 14.5466
648.916 14.3242
649.803 14.1158
650.689 13.9203
651.575 13.7368
652.272 13.6003
652.968 13.4698
654.361 13.2256
655.754 13.0010
657.147 12.7937
658.540 12.6013
659.933 12.4221
661.326 12.2547
662.719 12.0976
664.618 11.8982
666.518 11.7137
668.417 11.5421
670.317 11.3824
672.216 11.2320
674.116 11.0903
676.015 10.9563
677.914 10.8293
680.700 10.6543
683.486 10.4903
686.272 10.3361
689.058 10.1905
691.844 10.0519
694.630 9.91981
697.416 9.79322
700.201 9.67134
703.747 9.52236
707.293 9.37947
710.838 9.24100
714.384 9.10644
717.930 8.97512
721.475 8.84647
725.021 8.71996
728.567 8.59515
734.138 8.40125
739.710 8.20851
745.282 8.01549
750.854 7.82066
756.425 7.62289
761.997 7.42038
767.569 7.21188
773.140 6.99621
777.193 6.83351
781.245 6.66525
785.297 6.49071
789.349 6.30907
793.401 6.11956
797.454 5.92108
801.506 5.71244
803.532 5.60397
805.558 5.49253
808.344 5.33403
811.130 5.16919
813.916 4.99738
816.701 4.81792
819.487 4.63048
822.273 4.43410
823.666 4.33248
825.059 4.22821
826.452 4.12151
827.845 4.01223
829.744 3.85859
831.644 3.69953
833.543 3.53481
835.443 3.36421
837.342 3.18782
839.242 3.00465
841.141 2.81486
842.091 2.71745
843.041 2.61833
844.434 2.46987
845.826 2.31778
847.219 2.16212
848.612 2.00302
850.005 1.84071
850.702 1.75846
851.398 1.67558
852.095 1.59210
852.791 1.50813
853.488 1.42377
854.184 1.33915
855.197 1.21587
856.210 1.09290
857.223 0.970938
858.236 0.850907
859.249 0.733810
859.756 0.676834
860.262 0.621268
860.769 0.567339
861.275 0.515337
861.782 0.465561
862.288 0.418378
862.637 0.387678
862.985 0.358608
863.333 0.331332
863.681 0.306054
863.856 0.294219
864.030 0.282969
864.204 0.272327
864.378 0.262325
864.552 0.252997
864.726 0.244377
864.900 0.236501
865.074 0.229410
865.264 0.222612
865.454 0.216855
865.644 0.212192
865.834 0.208694
866.024 0.206427
866.214 0.205467
866.309 0.205502
866.404 0.205893
866.499 0.206651
866.594 0.207787
866.689 0.209312
866.784 0.211238
866.887 0.213790
866.990 0.216840
867.092 0.220406
867.195 0.224502
867.298 0.229147
867.401 0.234357
867.504 0.240150
867.607 0.246539
867.781 0.258794
867.955 0.272921
868.129 0.289034
868.303 0.307246
868.478 0.327690
868.652 0.350471
868.826 0.375736
869.000 0.403631
869.174 0.434311
869.348 0.467944
869.522 0.504705
869.696 0.544784
869.870 0.588385
870.044 0.635725
870.219 0.687038
870.306 0.714277
870.393 0.742573
870.480 0.772024
870.567 0.802634
870.654 0.834441
870.741 0.867443
870.828 0.901757
870.915 0.937344
871.002 0.974328
871.089 1.01267
871.263 1.09383
871.437 1.18113
871.612 1.27502
871.786 1.37597
871.960 1.48453
872.134 1.60112
872.308 1.72636
872.482 1.86091
872.656 2.00544
872.830 2.16069
873.004 2.32750
873.179 2.50675
873.353 2.69953
873.527 2.90670
873.701 3.12954
873.875 3.36935
874.049 3.62754
874.223 3.90570
874.397 4.20556
874.571 4.52906
874.746 4.87855
874.920 5.25601
875.094 5.66429
875.268 6.10637
875.442 6.58558
875.616 7.10565
875.790 7.67082
875.964 8.28584
876.139 8.95651
876.313 9.68821
876.487 10.4883
876.661 11.3648
876.748 11.8348
876.835 12.3275
876.922 12.8442
877.009 13.3858
877.096 13.9552
877.183 14.5527
877.270 15.1816
877.357 15.8424
877.444 16.5388
877.532 17.2724
877.619 18.0458
877.706 18.8608
877.793 19.7223
877.880 20.6315
877.967 21.5942
878.054 22.6120
878.141 23.6915
878.228 24.8350
878.315 26.0502
878.402 27.3401
878.489 28.7137
878.576 30.1750
878.663 31.7349
878.750 33.3983
878.869 35.8570
878.988 38.5548
879.106 41.5258
879.225 44.8073
879.285 46.5796
879.344 48.4469
879.403 50.4160
879.463 52.4907
879.522 54.6864
879.581 57.0044
879.641 59.4625
879.700 62.0630
879.787 66.1735
879.874 70.6629
879.961 75.5910
880.048 81.0038
880.135 86.9811
880.222 93.5884
880.266 97.1677
880.309 100.935
880.353 104.911
880.396 109.114
880.440 113.569
880.484 118.277
880.527 123.278
880.571 128.573
880.614 134.210
880.658 140.191
880.701 146.557
880.745 153.340
880.788 160.592
880.832 168.318
880.875 176.575
880.919 185.408
880.962 194.888
881.006 205.024
881.049 215.894
881.093 227.557
881.129 237.768
881.164 248.563
881.200 260.011
881.235 272.152
881.271 285.029
881.307 298.687
881.342 313.171
881.378 328.529
881.414 344.854
881.449 362.104
881.485 380.372
881.520 399.705
881.556 420.151
881.592 441.756
881.627 464.563
881.663 488.613
881.706 519.816
881.750 552.920
881.793 588.041
881.837 625.213
881.880 664.543
881.924 705.844
881.967 749.177
882.011 794.490
882.055 841.812
882.098 890.816
882.185 993.590
882.272 1101.52
882.359 1212.28
882.458 1338.89
882.557 1461.39
882.657 1575.08
882.706 1626.98
882.756 1674.66
882.799 1712.36
882.842 1746.06
882.885 1775.59
882.928 1800.52
882.971 1820.71
883.014 1835.88
883.057 1845.91
883.100 1850.72
883.156 1849.08
883.212 1838.53
883.268 1819.28
883.324 1791.76
883.380 1756.36
883.436 1713.85
883.493 1664.80
883.549 1610.19
883.629 1523.80
883.709 1430.39
883.869 1232.66
883.972 1105.53
884.075 983.010
884.126 924.415
884.177 867.996
884.229 813.973
884.280 762.511
884.346 699.876
884.413 641.827
884.479 588.367
884.512 563.330
884.546 539.399
884.579 516.549
884.612 494.755
884.645 473.985
884.678 454.208
884.712 435.390
884.745 417.496
884.778 400.490
884.811 384.334
884.844 368.993
884.878 354.428
884.911 340.604
884.944 327.484
884.977 315.033
885.010 303.217
885.044 292.002
885.077 281.356
885.143 261.649
885.210 243.862
885.276 227.784
885.342 213.225
885.394 202.888
885.445 193.305
885.496 184.391
885.548 176.088
885.599 168.341
885.650 161.104
885.702 154.333
885.753 147.988
885.804 142.024
885.856 136.431
885.907 131.169
885.958 126.212
886.009 121.535
886.061 117.118
886.112 112.941
886.163 108.987
886.230 104.166
886.296 99.6667
886.363 95.4545
886.429 91.5045
886.495 87.7945
886.562 84.3049
886.628 81.0178
886.695 77.9174
886.761 74.9893
886.827 72.2204
886.960 67.1145
887.093 62.5179
887.226 58.3629
887.359 54.5927
887.491 51.1595
887.624 48.0230
887.757 45.1486
887.890 42.5068
888.023 40.0723
888.155 37.8229
888.288 35.7395
888.421 33.8040
888.554 32.0046
888.687 30.3270
888.820 28.7598
888.952 27.2930
889.085 25.9179
889.218 24.6266
889.351 23.4120
889.484 22.2680
889.616 21.1889
889.749 20.1698
889.882 19.2059
890.015 18.2933
890.148 17.4282
890.280 16.6071
890.413 15.8271
890.546 15.0847
890.679 14.3785
890.812 13.7057
890.944 13.0641
891.077 12.4518
891.210 11.8669
891.343 11.3078
891.476 10.7731
891.608 10.2613
891.741 9.77123
891.874 9.30167
892.007 8.85155
892.140 8.41989
892.272 8.00577
892.405 7.60836
892.538 7.22687
892.665 6.87684
892.792 6.54011
892.918 6.21615
893.045 5.90472
893.172 5.60487
893.299 5.31644
893.426 5.03906
893.552 4.77256
893.679 4.51623
893.806 4.26996
893.933 4.03352
894.059 3.80682
894.186 3.58930
894.313 3.38113
894.440 3.18181
894.566 2.99151
894.663 2.85230
894.796 2.66915
894.929 2.49544
895.061 2.33108
895.194 2.17604
895.327 2.03028
895.460 1.89380
895.593 1.76661
895.659 1.70652
895.725 1.64876
895.792 1.59335
895.858 1.54030
895.925 1.48962
895.991 1.44132
896.057 1.39542
896.124 1.35194
896.190 1.31089
896.257 1.27229
896.323 1.23617
896.389 1.20254
896.456 1.17143
896.522 1.14287
896.589 1.11689
896.655 1.09351
896.721 1.07277
896.788 1.05469
896.848 1.04060
896.909 1.02877
896.969 1.01923
897.029 1.01203
897.090 1.00717
897.150 1.00470
897.210 1.00465
897.271 1.00705
897.328 1.01165
897.385 1.01852
897.443 1.02773
897.500 1.03927
897.558 1.05322
897.615 1.06958
897.672 1.08844
897.730 1.10977
897.787 1.13370
897.844 1.16018
897.902 1.18936
897.959 1.22118
898.016 1.25580
898.074 1.29315
898.131 1.33342
898.188 1.37651
898.255 1.43015
898.321 1.48784
898.388 1.54969
898.454 1.61579
898.520 1.68623
898.587 1.76114
898.653 1.84061
898.720 1.92476
898.768 1.98897
898.816 2.05578
898.864 2.12521
898.913 2.19733
899.009 2.34981
899.106 2.51365
899.203 2.68929
899.299 2.87719
899.396 3.07786
899.492 3.29160
899.559 3.44689
899.625 3.60869
899.692 3.77742
899.758 3.95327
899.824 4.13647
899.891 4.32723
899.957 4.52579
900.024 4.73237
900.090 4.94723
900.156 5.17063
900.223 5.40283
900.289 5.64410
900.422 6.15507
900.555 6.70598
900.688 7.29948
900.820 7.93848
900.953 8.62608
901.086 9.36568
901.219 10.1610
901.352 11.0160
901.484 11.9351
901.617 12.9230
901.750 13.9849
901.883 15.1266
902.016 16.3542
902.148 17.6745
902.281 19.0950
902.414 20.6240
902.547 22.2704
902.680 24.0442
902.812 25.9563
902.945 28.0189
903.078 30.2455
903.211 32.6508
903.344 35.2514
903.476 38.0657
903.609 41.1143
903.742 44.4200
903.875 48.0114
904.008 51.9119
904.140 56.1564
904.273 60.7814
904.406 65.8283
904.539 71.3436
904.672 77.3805
904.804 83.9993
904.871 87.5536
904.937 91.2746
905.004 95.1779
905.070 99.2744
905.137 103.576
905.203 108.094
905.269 112.844
905.336 117.838
905.402 123.094
905.469 128.627
905.535 134.455
905.601 140.598
905.668 147.076
905.734 153.913
905.801 161.132
905.867 168.760
905.933 176.824
906.000 185.355
906.066 194.386
906.133 203.953
906.199 214.094
906.265 224.851
906.332 236.268
906.398 248.395
906.465 261.283
906.531 274.989
906.597 289.575
906.664 305.105
906.730 321.652
906.797 339.290
906.863 358.101
906.929 378.172
907.020 407.760
907.110 440.081
907.201 475.477
907.292 514.158
907.382 556.508
907.473 602.740
907.563 653.267
907.654 708.274
907.720 751.677
907.787 797.767
907.853 846.625
907.919 898.314
907.986 952.872
908.052 1010.31
908.119 1070.60
908.185 1133.67
908.286 1234.28
908.386 1340.31
908.487 1450.93
908.587 1564.93
908.788 1796.55
908.889 1910.19
908.989 2019.34
909.065 2097.80
909.142 2171.17
909.218 2238.38
909.295 2298.36
909.371 2350.36
909.447 2393.51
909.524 2427.16
909.600 2450.81
909.676 2464.23
909.739 2467.50
909.801 2463.95
909.863 2453.72
909.925 2437.03
909.987 2414.11
910.049 2385.38
910.111 2351.15
910.173 2311.98
910.297 2220.54
910.421 2115.22
910.545 2000.30
910.669 1879.86
910.800 1750.86
910.931 1623.50
911.062 1500.49
911.193 1383.84
911.258 1328.25
911.324 1274.77
911.389 1223.38
911.454 1174.12
911.520 1127.00
911.585 1082.01
911.651 1039.12
911.716 998.272
911.784 957.744
911.853 919.314
911.921 882.896
911.989 848.450
912.057 815.780
912.126 784.842
912.194 755.536
912.262 727.803
912.330 701.463
912.399 676.457
912.467 652.683
912.535 630.071
912.604 608.449
912.672 587.745
912.740 567.847
912.808 548.671
912.945 511.877
913.081 476.477
913.218 441.519
913.355 406.290
913.491 370.244
913.628 333.329
913.764 295.873
913.901 258.673
914.000 69.1512
1000.00 66.3731
1250.00 59.9938
1500.00 55.2827
1700.00 52.2871
2000.00 48.6654
2500.00 44.1453
3000.00 40.8055
3500.00 38.2073
4000.00 36.1108
4500.00 34.3726
5000.00 32.9006
5500.00 31.6329
6000.00 30.5261
6500.00 29.5485
7000.00 28.6767
7500.00 27.8927
8000.00 27.1827
8500.00 26.5356
9000.00 25.9426
9500.00 25.3964
10000.0 24.8911
11000.0 23.9845
12000.0 23.1919
13000.0 22.4910
14000.0 21.8652
15000.0 21.3018
16000.0 20.7908
17000.0 20.3245
18000.0 19.8966
19000.0 19.5020
20000.0 19.1365
20000.0 19.1365
21000.0 18.7966
22000.0 18.4794
23000.0 18.1824
24000.0 17.9035
25000.0 17.6408
26000.0 17.3929
27000.0 17.1583
30000.0 16.5231
35000.0 15.6437
37000.0 15.3402
40000.0 14.9260
47000.0 14.1090
50000.0 13.8353
57000.0 13.1965
60000.0 12.9817
67000.0 12.4805
70000.0 12.3053
77000.0 11.8964
80000.0 11.7494
87000.0 11.4063
90000.0 11.2802
97000.0 10.9861
100000 10.8762
107000 10.6198
117000 10.2964
127000 10.0076
150000 9.44514
170000 9.04272
177000 8.91676
200000 8.54685
227000 8.18212
277000 7.64977
300000 7.46481
327000 7.24768
377000 6.93597
396000 6.84254
400000 6.82296
427000 6.69023
427000 6.68907
500000 6.76714
554022 6.81428
554023 6.81427
600000 6.85439
700000 6.98910
800000 7.12380
900000 7.22744
1.00000E+06 7.30415
1.10000E+06 7.35591
1.16946E+06 7.37489
1.16946E+06 7.37489
1.18831E+06 7.38004
1.18831E+06 7.38005
1.20000E+06 7.38324
1.30000E+06 7.39461
1.40000E+06 7.38869
1.43416E+06 7.37901
1.43417E+06 7.37900
1.44398E+06 7.37622
1.44398E+06 7.37622
1.46404E+06 7.37053
1.46404E+06 7.37054
1.47511E+06 7.36740
1.47511E+06 7.36740
1.50000E+06 7.36034
1.60000E+06 7.33199
1.60516E+06 7.32932
1.60516E+06 7.32932
1.65984E+06 7.30101
1.65984E+06 7.30101
1.67062E+06 7.29543
1.67062E+06 7.29543
1.67559E+06 7.29286
1.69850E+06 7.28100
1.70000E+06 7.28023
1.72972E+06 7.26484
1.72972E+06 7.26484
1.74531E+06 7.25677
1.74531E+06 7.25677
1.77472E+06 7.24155
1.80000E+06 7.22846
1.83664E+06 7.20361
1.83734E+06 7.20314
1.90000E+06 7.16065
1.91537E+06 7.15022
1.91990E+06 7.14715
1.99250E+06 7.09792
2.00000E+06 7.09283
2.00287E+06 7.09050
2.00528E+06 7.08855
2.00951E+06 7.08512
2.06438E+06 7.04062
2.08079E+06 7.02731
2.08663E+06 7.02257
2.08925E+06 7.02045
2.11090E+06 7.00289
2.11492E+06 6.99963
2.14161E+06 6.97798
2.15359E+06 6.96827
2.16365E+06 6.96011
2.20000E+06 6.93063
2.22859E+06 6.90744
2.23162E+06 6.90498
2.24561E+06 6.89363
2.24793E+06 6.89175
2.25256E+06 6.88800
2.26353E+06 6.87910
2.26655E+06 6.87665
2.27551E+06 6.86939
2.31387E+06 6.83827
2.32545E+06 6.82888
2.34478E+06 6.81321
2.35817E+06 6.80235
2.36331E+06 6.79818
2.37257E+06 6.79067
2.37599E+06 6.78789
2.40000E+06 6.76842
2.40328E+06 6.76541
2.60000E+06 6.58495
3.00000E+06 6.21802
4.00000E+06 5.34640
5.00000E+06 4.78334
5.87076E+06 4.60175
6.00000E+06 4.57480
7.00000E+06 4.54900
7.63572E+06 4.56402
8.00000E+06 4.57263
8.19752E+06 4.58486
8.19752E+06 4.58486
9.00000E+06 4.63457
1.00000E+07 4.71978
1.10000E+07 4.82642
1.20000E+07 4.93306
1.30000E+07 5.02784
1.40000E+07 5.09433
1.45000E+07 5.11049
1.45818E+07 5.11313
1.45818E+07 5.11313
1.50000E+07 5.12664
1.53469E+07 5.12709
1.60000E+07 5.12793
1.70000E+07 5.10701
1.80000E+07 5.06445
1.90000E+07 5.02189
2.00000E+07 4.97933
