Gd-158(n,tot) ENDFB-8.0
Energy(eV) XS(b)
1.00000E-05 9.72397E+06
1.03250E-05 9.56976E+06
1.06500E-05 9.42266E+06
1.09750E-05 9.28214E+06
1.13000E-05 9.14773E+06
1.16250E-05 9.01900E+06
1.19500E-05 8.89556E+06
1.22750E-05 8.77705E+06
1.26000E-05 8.66316E+06
1.30000E-05 8.52889E+06
1.34000E-05 8.40068E+06
1.38000E-05 8.27809E+06
1.42000E-05 8.16072E+06
1.46000E-05 8.04820E+06
1.50000E-05 7.94022E+06
1.54000E-05 7.83647E+06
1.58000E-05 7.73669E+06
1.63250E-05 7.61133E+06
1.68500E-05 7.49188E+06
1.73750E-05 7.37789E+06
1.79000E-05 7.26895E+06
1.84250E-05 7.16470E+06
1.89500E-05 7.06481E+06
1.94750E-05 6.96899E+06
2.00000E-05 6.87697E+06
2.06375E-05 6.76999E+06
2.12750E-05 6.66786E+06
2.19125E-05 6.57021E+06
2.25500E-05 6.47674E+06
2.31875E-05 6.38715E+06
2.38250E-05 6.30118E+06
2.44625E-05 6.21860E+06
2.51000E-05 6.13918E+06
2.59125E-05 6.04224E+06
2.67250E-05 5.94976E+06
2.75375E-05 5.86141E+06
2.83500E-05 5.77688E+06
2.91625E-05 5.69591E+06
2.99750E-05 5.61825E+06
3.07875E-05 5.54369E+06
3.16000E-05 5.47203E+06
3.26250E-05 5.38547E+06
3.36500E-05 5.30290E+06
3.46750E-05 5.22402E+06
3.57000E-05 5.14856E+06
3.67250E-05 5.07629E+06
3.77500E-05 5.00698E+06
3.87750E-05 4.94044E+06
3.98000E-05 4.87648E+06
4.10750E-05 4.80030E+06
4.23500E-05 4.72758E+06
4.36250E-05 4.65808E+06
4.49000E-05 4.59156E+06
4.61750E-05 4.52781E+06
4.74500E-05 4.46666E+06
4.87250E-05 4.40792E+06
5.00000E-05 4.35144E+06
5.01000E-05 4.34710E+06
5.05063E-05 4.32961E+06
5.09125E-05 4.31233E+06
5.17250E-05 4.27838E+06
5.33500E-05 4.21283E+06
5.49750E-05 4.15021E+06
5.66000E-05 4.09030E+06
5.82250E-05 4.03292E+06
5.98500E-05 3.97790E+06
6.14750E-05 3.92507E+06
6.31000E-05 3.87430E+06
6.51375E-05 3.81335E+06
6.71750E-05 3.75519E+06
6.92125E-05 3.69963E+06
7.12500E-05 3.64646E+06
7.32875E-05 3.59553E+06
7.53250E-05 3.54668E+06
7.73625E-05 3.49978E+06
7.94000E-05 3.45470E+06
8.19750E-05 3.40014E+06
8.45500E-05 3.34810E+06
8.71250E-05 3.29839E+06
8.97000E-05 3.25083E+06
9.22750E-05 3.20528E+06
9.48500E-05 3.16160E+06
9.74250E-05 3.11967E+06
0.000100000 3.07937E+06
0.000103250 3.03067E+06
0.000106500 2.98422E+06
0.000109750 2.93986E+06
0.000113000 2.89742E+06
0.000116250 2.85678E+06
0.000119500 2.81781E+06
0.000122750 2.78040E+06
0.000126000 2.74445E+06
0.000130000 2.70206E+06
0.000134000 2.66160E+06
0.000138000 2.62291E+06
0.000142000 2.58586E+06
0.000146000 2.55036E+06
0.000150000 2.51628E+06
0.000154000 2.48354E+06
0.000158000 2.45206E+06
0.000163250 2.41251E+06
0.000168500 2.37483E+06
0.000173750 2.33887E+06
0.000179000 2.30450E+06
0.000184250 2.27162E+06
0.000189500 2.24012E+06
0.000194750 2.20990E+06
0.000200000 2.18089E+06
0.000206375 2.14715E+06
0.000212750 2.11495E+06
0.000219125 2.08417E+06
0.000225500 2.05471E+06
0.000231875 2.02647E+06
0.000238250 1.99938E+06
0.000244625 1.97335E+06
0.000251000 1.94833E+06
0.000259125 1.91778E+06
0.000267250 1.88865E+06
0.000275375 1.86082E+06
0.000283500 1.83419E+06
0.000291625 1.80869E+06
0.000299750 1.78424E+06
0.000307875 1.76077E+06
0.000316000 1.73821E+06
0.000326250 1.71096E+06
0.000336500 1.68497E+06
0.000346750 1.66015E+06
0.000357000 1.63641E+06
0.000367250 1.61367E+06
0.000377500 1.59187E+06
0.000387750 1.57095E+06
0.000398000 1.55084E+06
0.000410750 1.52689E+06
0.000423500 1.50403E+06
0.000436250 1.48219E+06
0.000449000 1.46128E+06
0.000461750 1.44126E+06
0.000474500 1.42205E+06
0.000487250 1.40360E+06
0.000500000 1.38587E+06
0.000501000 1.38451E+06
0.000505063 1.37902E+06
0.000509125 1.37359E+06
0.000517250 1.36294E+06
0.000533500 1.34236E+06
0.000549750 1.32272E+06
0.000566000 1.30392E+06
0.000582250 1.28593E+06
0.000598500 1.26868E+06
0.000614750 1.25212E+06
0.000631000 1.23621E+06
0.000651375 1.21711E+06
0.000671750 1.19889E+06
0.000692125 1.18150E+06
0.000712500 1.16485E+06
0.000732875 1.14892E+06
0.000753250 1.13364E+06
0.000773625 1.11897E+06
0.000794000 1.10487E+06
0.000819750 1.08782E+06
0.000845500 1.07156E+06
0.000871250 1.05604E+06
0.000897000 1.04119E+06
0.000922750 1.02697E+06
0.000948500 1.01335E+06
0.000974250 1.00027E+06
0.00100000 987708
0.00103250 972535
0.00106500 958069
0.00109750 944259
0.00113000 931055
0.00116250 918416
0.00119500 906302
0.00122750 894679
0.00126000 883514
0.00130000 870360
0.00134000 857807
0.00138000 845812
0.00142000 834335
0.00146000 823340
0.00150000 812795
0.00154000 802670
0.00158000 792938
0.00163250 780721
0.00168500 769090
0.00173750 758000
0.00179000 747410
0.00184250 737284
0.00189500 727591
0.00194750 718300
0.00200000 709385
0.00206375 699031
0.00212750 689156
0.00219125 679724
0.00225500 670705
0.00231875 662069
0.00238250 653791
0.00244625 645847
0.00251000 638216
0.00259125 628911
0.00267250 620046
0.00275375 611588
0.00283500 603506
0.00291625 595775
0.00299750 588370
0.00307875 581269
0.00316000 574453
0.00326250 566233
0.00336500 558404
0.00346750 550936
0.00357000 543805
0.00367250 536986
0.00377500 530456
0.00387750 524198
0.00398000 518193
0.00410750 511052
0.00423500 504250
0.00436250 497762
0.00449000 491564
0.00461750 485636
0.00474500 479961
0.00487250 474520
0.00500000 469299
0.00501000 468898
0.00505063 467284
0.00509125 465689
0.00517250 462560
0.00533500 456529
0.00549750 450781
0.00566000 445296
0.00582250 440055
0.00598500 435041
0.00614750 430239
0.00631000 425634
0.00651375 420119
0.00671750 414873
0.00692125 409874
0.00712500 405104
0.00732875 400547
0.00753250 396188
0.00773625 392013
0.00794000 388010
0.00819750 383181
0.00845500 378587
0.00871250 374213
0.00897000 370039
0.00922750 366053
0.00948500 362241
0.00974250 358590
0.0100000 355090
0.0105275 348347
0.0110550 342119
0.0115825 336342
0.0121100 330961
0.0126375 325932
0.0131650 321215
0.0136925 316776
0.0142200 312585
0.0146800 309114
0.0151400 305796
0.0156000 302619
0.0160600 299570
0.0169800 293816
0.0179000 288456
0.0189250 282874
0.0199500 277633
0.0200000 277385
0.0201656 276568
0.0203313 275758
0.0206625 274159
0.0213250 271037
0.0226500 265056
0.0239750 259360
0.0253000 253884
0.0268250 247788
0.0283500 241854
0.0298750 236033
0.0314000 230291
0.0324788 226262
0.0335575 222252
0.0346363 218256
0.0357150 214271
0.0365282 211272
0.0373414 208277
0.0381546 205286
0.0389678 202299
0.0405942 196338
0.0422206 190399
0.0438470 184490
0.0454734 178620
0.0470999 172801
0.0487263 167044
0.0500000 162587
0.0516375 156932
0.0532750 151373
0.0549125 145920
0.0565500 140584
0.0581875 135371
0.0598250 130290
0.0614625 125348
0.0631000 120549
0.0645034 116553
0.0659067 112668
0.0673101 108893
0.0687134 105231
0.0701168 101681
0.0715202 98242.0
0.0729235 94914.4
0.0743269 91696.7
0.0759213 88172.2
0.0775158 84785.0
0.0783130 83141.8
0.0791102 81531.8
0.0799074 79954.6
0.0807046 78409.6
0.0815019 76896.4
0.0822991 75414.5
0.0830963 73963.5
0.0838935 72542.8
0.0846907 71152.1
0.0854880 69790.8
0.0862852 68458.4
0.0870824 67154.4
0.0883511 65136.5
0.0896198 63187.2
0.0908885 61304.5
0.0921572 59486.3
0.0934259 57730.5
0.0946946 56035.3
0.0959633 54398.4
0.0972319 52818.0
0.0986160 51156.1
0.100000 49556.7
0.101214 48203.7
0.102427 46895.4
0.103641 45630.2
0.104854 44406.6
0.106068 43223.2
0.107282 42078.5
0.108495 40971.2
0.109709 39900.0
0.110784 38980.1
0.111859 38086.7
0.112934 37218.8
0.114009 36375.7
0.115084 35556.5
0.116159 34760.6
0.117234 33987.1
0.118309 33235.3
0.119384 32504.6
0.120459 31794.3
0.121534 31103.8
0.122609 30432.4
0.123684 29779.5
0.124759 29144.6
0.125834 28527.0
0.126909 27926.3
0.128310 27167.9
0.129710 26436.1
0.131111 25729.8
0.132512 25047.9
0.133913 24389.5
0.135314 23753.7
0.136714 23139.4
0.138115 22545.9
0.139516 21972.3
0.140917 21417.8
0.142317 20881.7
0.143718 20363.2
0.145119 19861.7
0.146520 19376.4
0.147921 18906.8
0.149321 18452.3
0.151269 17844.2
0.153217 17262.5
0.155164 16705.9
0.157112 16173.1
0.159060 15662.7
0.161007 15173.8
0.162955 14705.2
0.164903 14255.8
0.166666 13864.8
0.168429 13488.1
0.170193 13125.2
0.171956 12775.3
0.173720 12438.0
0.175483 12112.6
0.177247 11798.7
0.179010 11495.7
0.180774 11203.2
0.182537 10920.8
0.184300 10647.9
0.186064 10384.3
0.187827 10129.4
0.189591 9883.08
0.191354 9644.84
0.193118 9414.38
0.194838 9196.69
0.196559 8985.85
0.198279 8781.58
0.200000 8583.61
0.202200 8339.34
0.204399 8104.50
0.206599 7878.64
0.208798 7661.34
0.210998 7452.19
0.213198 7250.81
0.215397 7056.83
0.217597 6869.94
0.219796 6689.79
0.221996 6516.09
0.224195 6348.55
0.226395 6186.90
0.228595 6030.87
0.230794 5880.23
0.232994 5734.74
0.235193 5594.18
0.237701 5439.68
0.240209 5291.03
0.242716 5147.95
0.245224 5010.17
0.247732 4877.44
0.250240 4749.54
0.252747 4626.24
0.255255 4507.34
0.258050 4379.76
0.260844 4257.13
0.263639 4139.23
0.266434 4025.81
0.269229 3916.67
0.272023 3811.60
0.274818 3710.42
0.277613 3612.93
0.280407 3518.98
0.283202 3428.39
0.285997 3341.03
0.288791 3256.73
0.291586 3175.37
0.294381 3096.82
0.297175 3020.96
0.299970 2947.66
0.302962 2871.91
0.305954 2798.86
0.308946 2728.37
0.311938 2660.35
0.314930 2594.67
0.317922 2531.24
0.320914 2469.96
0.323906 2410.73
0.327425 2343.60
0.330943 2279.05
0.334461 2216.97
0.337979 2157.23
0.341498 2099.72
0.345016 2044.34
0.348534 1990.98
0.352053 1939.56
0.355571 1889.99
0.359089 1842.17
0.362607 1796.04
0.366126 1751.51
0.369644 1708.52
0.373162 1666.99
0.376681 1626.88
0.380199 1588.11
0.384030 1547.35
0.387861 1508.05
0.391692 1470.15
0.395523 1433.57
0.399354 1398.26
0.403185 1364.17
0.407015 1331.23
0.410846 1299.41
0.415224 1264.34
0.419603 1230.58
0.423981 1198.09
0.428359 1166.79
0.432737 1136.64
0.437115 1107.58
0.441493 1079.55
0.445871 1052.52
0.450249 1026.43
0.454627 1001.26
0.459005 976.945
0.463383 953.465
0.467762 930.782
0.472140 908.865
0.476518 887.681
0.480896 867.197
0.485672 845.610
0.490448 824.771
0.500000 785.188
0.512315 737.984
0.524629 694.738
0.536944 655.056
0.549259 618.584
0.561574 584.948
0.573888 553.818
0.586203 524.974
0.598518 498.225
0.608203 478.534
0.617889 459.931
0.627574 442.336
0.637260 425.687
0.646946 409.934
0.656631 395.021
0.676003 367.490
0.695374 342.707
0.714745 320.263
0.734116 299.851
0.753488 281.272
0.765681 270.425
0.777874 260.174
0.790068 250.472
0.802261 241.288
0.814455 232.597
0.826648 224.368
0.851035 209.167
0.875422 195.479
0.899809 183.074
0.924196 171.785
0.948583 161.506
0.974291 151.641
1.00000 142.649
1.01746 136.996
1.03491 131.690
1.05237 126.706
1.06983 122.019
1.08728 117.592
1.10474 113.401
1.12220 109.435
1.13965 105.683
1.15711 102.132
1.17457 98.7675
1.20948 92.5515
1.24439 86.9443
1.27930 81.8694
1.31750 76.8781
1.35570 72.4083
1.39390 68.3639
1.43210 64.7049
1.47030 61.3954
1.50849 58.3989
1.54669 55.6835
1.58489 53.2175
1.62016 51.1474
1.65542 49.2652
1.69069 47.5529
1.72596 45.9990
1.76122 44.5942
1.79649 43.3316
1.83175 42.2056
1.86702 41.2124
1.90027 40.3963
1.93351 39.6967
1.96676 39.1151
2.00000 38.6550
2.03199 38.3360
2.06399 38.1447
2.09598 38.0884
2.12797 38.1828
2.15997 38.4469
2.19196 38.9035
2.22395 39.5810
2.23995 40.0162
2.25595 40.5254
2.27194 41.1164
2.28794 41.7971
2.30394 42.5772
2.31993 43.4681
2.33993 44.7582
2.35992 46.2746
2.37992 48.0566
2.38992 49.0620
2.39992 50.1529
2.40991 51.3373
2.41991 52.6241
2.42991 54.0234
2.43991 55.5463
2.44990 57.2065
2.45990 59.0188
2.46990 61.0010
2.47990 63.1729
2.48790 65.0630
2.49589 67.1026
2.50389 69.3069
2.51189 71.6928
2.52325 75.4324
2.53461 79.6413
2.54598 84.3976
2.55166 87.0096
2.55734 89.7949
2.56302 92.7696
2.56870 95.9500
2.57438 99.3549
2.58006 103.005
2.58574 106.924
2.59142 111.139
2.59710 115.679
2.60278 120.576
2.61001 127.389
2.61724 134.935
2.62447 143.322
2.63170 152.677
2.63893 163.151
2.64255 168.863
2.64616 174.925
2.64978 181.366
2.65339 188.216
2.65701 195.511
2.66062 203.285
2.66630 216.578
2.67198 231.346
2.67766 247.796
2.68050 256.726
2.68334 266.171
2.68619 276.170
2.68903 286.756
2.69187 297.977
2.69471 309.870
2.69755 322.489
2.70039 335.876
2.70323 350.086
2.70607 365.176
2.71020 388.817
2.71433 414.617
2.71846 442.778
2.72259 473.478
2.72673 506.920
2.73086 543.267
2.73499 582.685
2.73912 625.305
2.74325 671.224
2.74738 720.454
2.75151 772.981
2.75564 828.656
2.75978 887.286
2.76391 948.511
2.76804 1011.89
2.77217 1076.85
2.77459 1115.34
2.77701 1153.96
2.77943 1192.56
2.78184 1230.91
2.78668 1306.16
2.79152 1378.01
2.79494 1425.85
2.79837 1470.44
2.80179 1511.18
2.80522 1547.46
2.80864 1578.75
2.81207 1604.54
2.81549 1624.43
2.81891 1638.10
2.82196 1644.86
2.82500 1646.43
2.82843 1642.00
2.83185 1631.08
2.83527 1613.86
2.83870 1590.62
2.84212 1561.73
2.84555 1527.67
2.84897 1488.95
2.85239 1446.15
2.85619 1394.74
2.85998 1339.93
2.86377 1282.56
2.86756 1223.49
2.87135 1163.48
2.87514 1103.28
2.88272 984.800
2.88892 892.199
2.89512 805.250
2.89822 764.242
2.90132 724.995
2.90442 687.558
2.90752 651.956
2.91020 622.678
2.91287 594.768
2.91555 568.196
2.91823 542.931
2.92091 518.931
2.92358 496.173
2.92626 474.604
2.92894 454.177
2.93162 434.835
2.93429 416.544
2.93697 399.245
2.93965 382.889
2.94232 367.418
2.94500 352.797
2.94768 338.973
2.95036 325.899
2.95346 311.639
2.95656 298.263
2.95966 285.708
2.96276 273.918
2.96586 262.839
2.96896 252.420
2.97206 242.615
2.97516 233.381
2.97826 224.676
2.98136 216.465
2.98446 208.712
2.98756 201.385
2.99066 194.457
2.99376 187.898
2.99995 175.797
3.00615 164.899
3.01235 155.055
3.01855 146.136
3.02475 138.031
3.03095 130.645
3.03715 123.895
3.04335 117.712
3.04955 112.033
3.05547 107.033
3.06139 102.403
3.06731 98.1085
3.07323 94.1162
3.07915 90.3986
3.08506 86.9308
3.09098 83.6908
3.09690 80.6589
3.10282 77.8170
3.10874 75.1505
3.11465 72.6447
3.12057 70.2868
3.12649 68.0653
3.13241 65.9700
3.14424 62.1204
3.15257 59.6571
3.16089 57.3725
3.16922 55.2495
3.17754 53.2732
3.18586 51.4295
3.19419 49.7068
3.20251 48.0944
3.21083 46.5832
3.21916 45.1643
3.22748 43.8304
3.23581 42.5747
3.24413 41.3912
3.26078 39.2186
3.27742 37.2741
3.29502 35.4322
3.31261 33.7787
3.33020 32.2878
3.34779 30.9383
3.36538 29.7120
3.38297 28.5943
3.40056 27.5721
3.41815 26.6343
3.43575 25.7708
3.45334 24.9733
3.47093 24.2345
3.48852 23.5486
3.50611 22.9103
3.52370 22.3152
3.54129 21.7594
3.55888 21.2390
3.57648 20.7510
3.59407 20.2924
3.62925 19.4538
3.66443 18.7060
3.69961 18.0350
3.72118 17.6567
3.74276 17.3009
3.78590 16.6489
3.82904 16.0663
3.87218 15.5431
3.91533 15.0699
3.95847 14.6378
4.00161 14.2423
4.04475 13.8809
4.08854 13.5436
4.13232 13.2309
4.17610 12.9407
4.21988 12.6709
4.26367 12.4192
4.30745 12.1838
4.35123 11.9630
4.39501 11.7556
4.48258 11.3757
4.57014 11.0361
4.65770 10.7303
4.74527 10.4532
4.80895 10.2674
4.87263 10.0934
4.93632 9.92988
5.00000 9.77586
5.01187 9.74815
5.04229 9.67855
5.07270 9.61100
5.13353 9.48141
5.25519 9.24081
5.37685 9.02282
5.49851 8.82440
5.62017 8.64311
5.74183 8.47809
5.86349 8.32413
5.98515 8.18187
6.10753 8.04959
6.22991 7.92656
6.35230 7.81105
6.47468 7.70394
6.71945 7.51012
6.96421 7.33848
7.08660 7.25995
7.20898 7.18596
7.33136 7.11552
7.45375 7.04943
7.69851 6.92670
7.94328 6.81626
8.10396 6.75015
8.26464 6.68754
8.42532 6.62893
8.58601 6.57448
8.74669 6.52286
8.90737 6.47498
9.22873 6.38810
9.42155 6.34188
9.61437 6.29973
9.80718 6.26135
10.0000 6.22688
10.2225 6.19237
10.4450 6.16357
10.6676 6.14069
10.8901 6.12420
11.1126 6.11464
11.3351 6.11289
11.5576 6.11997
11.7801 6.13719
11.9577 6.15941
12.1352 6.19033
12.3127 6.23133
12.4903 6.28406
12.6678 6.35003
12.7566 6.38923
12.8454 6.43296
12.9341 6.48161
13.0229 6.53569
13.1117 6.59574
13.2004 6.66239
13.3341 6.77683
13.4678 6.91078
13.6015 7.06777
13.6684 7.15623
13.7352 7.25218
13.8021 7.35631
13.8689 7.46945
13.9358 7.59249
14.0026 7.72646
14.0695 7.87249
14.1363 8.03169
14.2032 8.20520
14.2700 8.39498
14.3401 8.61419
14.4101 8.85658
14.4801 9.12492
14.5502 9.42266
14.6202 9.75390
14.6902 10.1235
14.7603 10.5373
14.8303 11.0020
14.9003 11.5262
14.9704 12.1196
15.0054 12.4461
15.0404 12.7946
15.0754 13.1673
15.1104 13.5663
15.1454 13.9942
15.1805 14.4537
15.2155 14.9478
15.2505 15.4799
15.2855 16.0542
15.3205 16.6745
15.3555 17.3462
15.3905 18.0752
15.4287 18.9442
15.4669 19.9008
15.5051 20.9572
15.5433 22.1279
15.5784 23.3164
15.6134 24.6317
15.6484 26.0937
15.6834 27.7261
15.7184 29.5601
15.7359 30.5642
15.7534 31.6332
15.7710 32.7752
15.7885 33.9972
15.8060 35.3086
15.8235 36.7193
15.8489 38.9783
15.8705 41.1211
15.8921 43.5188
15.9029 44.8321
15.9137 46.2327
15.9245 47.7334
15.9353 49.3488
15.9461 51.0980
15.9569 52.9989
15.9677 55.0789
15.9785 57.3691
15.9893 59.9092
16.0000 62.7389
16.0108 65.9118
16.0216 69.4867
16.0297 72.4736
16.0378 75.7492
16.0459 79.3520
16.0540 83.3039
16.0621 87.6446
16.0702 92.3909
16.0783 97.5783
16.0864 103.212
16.0938 108.787
16.1012 114.754
16.1086 121.106
16.1161 127.828
16.1235 134.896
16.1309 142.272
16.1383 149.912
16.1457 157.758
16.1559 168.668
16.1660 179.636
16.1761 190.442
16.1862 200.840
16.1940 208.387
16.2017 215.455
16.2094 221.972
16.2172 227.842
16.2236 232.194
16.2300 236.036
16.2364 239.350
16.2429 242.129
16.2536 245.604
16.2643 247.714
16.2750 248.632
16.2857 248.595
16.2960 247.936
16.3062 246.960
16.3165 245.972
16.3267 245.279
16.3370 245.178
16.3473 245.948
16.3567 247.639
16.3661 250.453
16.3755 254.560
16.3849 260.101
16.3943 267.233
16.4037 276.086
16.4131 286.821
16.4178 292.947
16.4225 299.610
16.4272 306.852
16.4319 314.672
16.4366 323.115
16.4413 332.218
16.4460 342.040
16.4507 352.583
16.4554 363.915
16.4601 376.088
16.4648 389.192
16.4695 403.235
16.4742 418.316
16.4789 434.515
16.4836 451.920
16.4883 470.626
16.4930 490.739
16.4977 512.375
16.5024 535.711
16.5071 560.785
16.5118 587.793
16.5165 616.894
16.5212 648.331
16.5259 682.155
16.5306 718.627
16.5353 757.956
16.5401 800.458
16.5448 846.184
16.5495 895.465
16.5542 948.552
16.5589 1005.71
16.5636 1067.19
16.5683 1133.28
16.5730 1204.25
16.5781 1287.58
16.5832 1377.38
16.5883 1473.97
16.5935 1577.66
16.5986 1688.73
16.6037 1807.41
16.6089 1933.91
16.6140 2068.08
16.6187 2198.57
16.6234 2335.53
16.6281 2479.18
16.6328 2629.40
16.6375 2786.35
16.6422 2949.09
16.6469 3117.63
16.6516 3291.55
16.6610 3653.81
16.6704 4030.09
16.6892 4799.30
16.6985 5171.41
16.7078 5526.79
16.7171 5856.19
16.7263 6150.17
16.7358 6405.39
16.7405 6513.23
16.7453 6606.79
16.7500 6685.44
16.7547 6748.20
16.7595 6794.72
16.7642 6824.63
16.7700 6838.26
16.7729 6835.43
16.7777 6817.03
16.7824 6781.81
16.7872 6729.94
16.7919 6662.11
16.7967 6578.61
16.8014 6480.51
16.8061 6368.48
16.8109 6243.44
16.8192 5994.69
16.8276 5714.83
16.8359 5410.36
16.8443 5087.94
16.8780 3734.50
16.8864 3410.33
16.8948 3100.98
16.9032 2808.90
16.9116 2536.10
16.9189 2316.76
16.9262 2113.44
16.9335 1925.62
16.9371 1837.57
16.9407 1753.59
16.9444 1673.14
16.9480 1596.39
16.9517 1523.25
16.9553 1453.80
16.9589 1387.56
16.9626 1324.79
16.9662 1265.02
16.9698 1208.47
16.9741 1146.40
16.9783 1088.24
16.9825 1033.63
16.9867 982.400
16.9909 934.357
16.9951 889.322
16.9993 847.115
17.0035 807.566
17.0077 770.510
17.0119 735.786
17.0162 703.244
17.0204 672.738
17.0246 644.132
17.0288 617.297
17.0330 592.109
17.0372 568.455
17.0410 548.177
17.0449 529.002
17.0525 493.685
17.0602 461.984
17.0678 433.483
17.0755 407.711
17.0831 384.397
17.0908 363.182
17.0985 343.869
17.1069 324.492
17.1153 306.889
17.1237 290.824
17.1321 276.113
17.1406 262.600
17.1490 250.152
17.1574 238.654
17.1658 228.007
17.1743 218.111
17.1827 208.917
17.1911 200.345
17.1995 192.339
17.2079 184.847
17.2164 177.823
17.2248 171.230
17.2332 165.029
17.2416 159.184
17.2500 153.679
17.2585 148.481
17.2669 143.567
17.2837 134.504
17.3006 126.357
17.3174 118.993
17.3343 112.321
17.3511 106.251
17.3679 100.712
17.3810 96.7544
17.3940 93.0522
17.4070 89.5838
17.4200 86.3317
17.4330 83.2736
17.4460 80.3982
17.4591 77.6868
17.4721 75.1310
17.4851 72.7150
17.4981 70.4322
17.5241 66.2218
17.5502 62.4334
17.5762 59.0121
17.5930 56.9712
17.6099 55.0548
17.6267 53.2510
17.6436 51.5531
17.6604 49.9511
17.6773 48.4396
17.7109 45.6601
17.7446 43.1672
17.7783 40.9244
17.8120 38.8988
17.8457 37.0649
17.8702 35.8379
17.8947 34.6926
17.9192 33.6221
17.9437 32.6205
17.9682 31.6823
17.9927 30.8026
18.0172 29.9767
18.0417 29.2006
18.0907 27.7837
18.1397 26.5271
18.1887 25.4113
18.2377 24.4200
18.2683 23.8572
18.2989 23.3348
18.3602 22.4006
18.4214 21.5996
18.4827 20.9181
18.5439 20.3452
18.6052 19.8729
18.6664 19.4952
18.7277 19.2084
18.7950 18.9957
18.8624 18.8909
18.8961 18.8799
18.9298 18.8973
18.9635 18.9440
18.9972 19.0212
19.0308 19.1302
19.0645 19.2726
19.0982 19.4505
19.1319 19.6660
19.1656 19.9219
19.1993 20.2210
19.2330 20.5671
19.2666 20.9641
19.3065 21.5054
19.3463 22.1337
19.3861 22.8604
19.4259 23.6994
19.4657 24.6672
19.5055 25.7832
19.5453 27.0711
19.5652 27.7886
19.5851 28.5599
19.6188 30.0031
19.6525 31.6421
19.6694 32.5452
19.6862 33.5092
19.7030 34.5398
19.7199 35.6427
19.7367 36.8249
19.7536 38.0920
19.7704 39.4533
19.7873 40.9161
19.8041 42.4918
19.8210 44.1896
19.8378 46.0231
19.8546 48.0063
19.8791 51.1927
19.8914 52.9357
19.9036 54.7895
19.9157 56.7304
19.9277 58.7976
19.9398 61.0021
19.9518 63.3542
19.9639 65.8715
19.9759 68.5651
19.9880 71.4566
20.0000 74.5606
20.0110 77.5941
20.0219 80.8394
20.0329 84.3235
20.0439 88.0634
20.0548 92.0928
20.0658 96.4346
20.0768 101.131
20.0877 106.214
20.0932 108.921
20.0987 111.739
20.1042 114.678
20.1097 117.748
20.1151 120.960
20.1206 124.314
20.1261 127.823
20.1316 131.498
20.1371 135.357
20.1426 139.399
20.1480 143.643
20.1535 148.104
20.1590 152.798
20.1645 157.742
20.1700 162.955
20.1754 168.458
20.1809 174.285
20.1864 180.439
20.1919 186.960
20.1974 193.878
20.2028 201.227
20.2083 209.045
20.2138 217.372
20.2193 226.256
20.2248 235.763
20.2303 245.916
20.2357 256.792
20.2412 268.460
20.2467 280.994
20.2522 294.475
20.2577 308.993
20.2631 324.647
20.2671 336.820
20.2711 349.695
20.2751 363.321
20.2791 377.709
20.2846 398.959
20.2901 421.926
20.2955 446.803
20.3010 473.757
20.3065 502.965
20.3120 534.612
20.3175 568.894
20.3229 606.015
20.3284 646.259
20.3339 689.696
20.3394 736.614
20.3449 787.230
20.3504 841.865
20.3558 900.528
20.3613 963.517
20.3668 1031.02
20.3723 1103.34
20.3778 1180.36
20.3832 1262.32
20.3887 1349.32
20.3942 1441.57
20.3997 1538.74
20.4052 1640.95
20.4107 1748.09
20.4161 1860.22
20.4216 1976.71
20.4271 2097.46
20.4326 2222.12
20.4435 2481.38
20.4545 2750.23
20.4695 3122.53
20.4844 3486.13
20.4954 3736.43
20.5063 3964.42
20.5120 4070.98
20.5176 4168.46
20.5233 4256.31
20.5289 4333.40
20.5352 4405.02
20.5414 4462.18
20.5476 4504.04
20.5538 4530.19
20.5600 4540.35
20.5631 4539.38
20.5686 4528.00
20.5740 4504.45
20.5794 4468.87
20.5849 4421.76
20.5911 4354.11
20.5973 4272.81
20.6071 4118.40
20.6169 3936.47
20.6268 3732.04
20.6366 3510.71
20.6472 3259.84
20.6577 3002.03
20.6788 2489.32
20.6894 2244.37
20.7000 2012.17
20.7052 1901.72
20.7105 1795.38
20.7158 1693.35
20.7211 1595.77
20.7254 1519.12
20.7297 1445.72
20.7340 1375.38
20.7384 1308.11
20.7427 1243.87
20.7470 1182.63
20.7513 1124.33
20.7556 1068.92
20.7609 1004.99
20.7662 945.110
20.7715 889.115
20.7768 836.832
20.7820 788.080
20.7873 742.676
20.7926 700.431
20.7979 661.159
20.8032 624.676
20.8084 590.801
20.8137 559.359
20.8190 530.181
20.8243 503.103
20.8296 477.973
20.8348 454.644
20.8401 432.979
20.8454 412.810
20.8507 394.093
20.8560 376.677
20.8613 360.457
20.8665 345.336
20.8718 331.225
20.8771 318.043
20.8824 305.714
20.8877 294.168
20.8929 283.344
20.8982 273.182
20.9035 263.631
20.9088 254.642
20.9141 246.172
20.9193 238.180
20.9246 230.631
20.9328 219.757
20.9409 209.752
20.9491 200.523
20.9573 191.986
20.9654 184.071
20.9736 176.716
20.9817 169.866
20.9899 163.475
20.9981 157.499
21.0062 151.902
21.0144 146.652
21.0225 141.719
21.0307 137.078
21.0389 132.705
21.0470 128.580
21.0552 124.685
21.0657 119.952
21.0763 115.548
21.0869 111.440
21.0974 107.602
21.1080 104.012
21.1185 100.652
21.1291 97.5032
21.1397 94.5508
21.1502 91.7811
21.1608 89.1820
21.1713 86.7428
21.1819 84.4543
21.1925 82.3080
21.2030 80.2971
21.2241 76.6580
21.2434 73.7676
21.2626 71.2628
21.2818 69.1408
21.3010 67.4153
21.3106 66.7100
21.3202 66.1187
21.3298 65.6485
21.3394 65.3091
21.3490 65.1122
21.3586 65.0718
21.3682 65.2040
21.3778 65.5276
21.3902 66.2692
21.3965 66.7907
21.4027 67.4217
21.4090 68.1698
21.4152 69.0423
21.4214 70.0468
21.4277 71.1911
21.4339 72.4825
21.4402 73.9284
21.4464 75.5356
21.4526 77.3102
21.4589 79.2576
21.4651 81.3821
21.4714 83.6868
21.4776 86.1732
21.4872 90.3521
21.4968 94.9499
21.5064 99.9435
21.5160 105.295
21.5266 111.533
21.5371 118.046
21.5582 131.415
21.5755 142.012
21.5842 146.949
21.5928 151.517
21.6026 156.154
21.6125 160.064
21.6223 163.137
21.6321 165.281
21.6411 166.365
21.6500 166.592
21.6572 166.147
21.6643 165.148
21.6715 163.607
21.6786 161.542
21.6858 158.982
21.6929 155.959
21.6965 154.284
21.7053 149.756
21.7141 144.715
21.7228 139.249
21.7316 133.456
21.7469 122.893
21.7621 112.124
21.7789 100.533
21.7873 94.9775
21.7957 89.6407
21.8041 84.5562
21.8125 79.7483
21.8209 75.2333
21.8292 71.0246
21.8346 68.5008
21.8399 66.0994
21.8453 63.8189
21.8506 61.6571
21.8559 59.6111
21.8613 57.6776
21.8666 55.8527
21.8719 54.1354
21.8773 52.5149
21.8826 50.9900
21.8880 49.5560
21.8933 48.2082
21.8986 46.9417
21.9040 45.7520
21.9093 44.6344
21.9147 43.5864
21.9230 42.0629
21.9314 40.6799
21.9398 39.4226
21.9482 38.2773
21.9566 37.2319
21.9650 36.2751
21.9734 35.3970
21.9818 34.5898
21.9902 33.8437
21.9985 33.1529
22.0069 32.5112
22.0153 31.9134
22.0321 30.8317
22.0489 29.8776
22.0657 29.0267
22.0824 28.2617
22.0992 27.5685
22.1160 26.9362
22.1328 26.3562
22.1496 25.8214
22.1663 25.3261
22.1831 24.8661
22.1999 24.4368
22.2167 24.0354
22.2502 23.3058
22.2838 22.6599
22.3173 22.0855
22.3509 21.5727
22.3844 21.1150
22.4180 20.7069
22.4516 20.3450
22.4851 20.0267
22.5187 19.7508
22.5522 19.5171
22.5858 19.3266
22.6102 19.2163
22.6437 19.1064
22.6773 19.0494
22.7109 19.0529
22.7276 19.0804
22.7444 19.1272
22.7612 19.1955
22.7780 19.2875
22.7948 19.4062
22.8115 19.5550
22.8283 19.7384
22.8451 19.9617
22.8619 20.2312
22.8786 20.5549
22.8954 20.9435
22.9122 21.4098
22.9206 21.6772
22.9290 21.9706
22.9374 22.2930
22.9458 22.6476
22.9541 23.0382
22.9625 23.4691
22.9709 23.9452
22.9793 24.4721
22.9877 25.0560
22.9961 25.7043
23.0045 26.4251
23.0129 27.2266
23.0186 27.8258
23.0243 28.4714
23.0300 29.1671
23.0357 29.9173
23.0415 30.7263
23.0472 31.5987
23.0529 32.5395
23.0586 33.5540
23.0643 34.6475
23.0701 35.8258
23.0758 37.0946
23.0815 38.4600
23.0872 39.9281
23.0929 41.5049
23.0987 43.1965
23.1044 45.0088
23.1128 47.8975
23.1212 51.0751
23.1296 54.5562
23.1379 58.3525
23.1463 62.4715
23.1547 66.9159
23.1631 71.6826
23.1715 76.7556
23.1780 80.8878
23.1845 85.1786
23.1974 94.1930
23.2104 103.658
23.2234 113.355
23.2325 120.209
23.2493 132.426
23.2577 138.191
23.2661 143.604
23.2763 149.650
23.2866 154.898
23.2969 159.213
23.3072 162.480
23.3129 163.808
23.3186 164.773
23.3243 165.367
23.3300 165.585
23.3395 165.109
23.3490 163.598
23.3586 161.087
23.3681 157.641
23.3788 152.712
23.3896 146.829
23.4004 140.157
23.4112 132.875
23.4297 119.413
23.4483 105.572
23.4593 97.5282
23.4702 89.7501
23.4812 82.3413
23.4922 75.3859
23.5014 69.8800
23.5107 64.7579
23.5200 60.0223
23.5246 57.7997
23.5293 55.6730
23.5339 53.6410
23.5386 51.7021
23.5432 49.8543
23.5478 48.0955
23.5525 46.4233
23.5571 44.8348
23.5618 43.3275
23.5664 41.8982
23.5715 40.4222
23.5765 39.0344
23.5816 37.7279
23.5867 36.4984
23.5917 35.3398
23.5968 34.2527
23.6018 33.2308
23.6069 32.2703
23.6120 31.3658
23.6170 30.5173
23.6221 29.7197
23.6272 28.9696
23.6322 28.2627
23.6373 27.5988
23.6423 26.9737
23.6474 26.3849
23.6567 25.3899
23.6660 24.4959
23.6753 23.6897
23.6845 22.9604
23.6938 22.2989
23.7031 21.6969
23.7124 21.1475
23.7217 20.6444
23.7309 20.1821
23.7402 19.7568
23.7495 19.3640
23.7588 19.0004
23.7681 18.6629
23.7773 18.3488
23.7866 18.0560
23.7959 17.7825
23.8111 17.3716
23.8263 17.0010
23.8415 16.6652
23.8567 16.3600
23.8718 16.0813
23.8870 15.8261
23.9022 15.5918
23.9174 15.3762
23.9326 15.1772
23.9478 14.9933
23.9782 14.6651
24.0085 14.3823
24.0389 14.1378
24.0659 13.9480
24.0929 13.7813
24.1199 13.6351
24.1469 13.5075
24.1739 13.3972
24.2009 13.3028
24.2279 13.2235
24.2549 13.1588
24.2920 13.0928
24.3291 13.0531
24.3663 13.0400
24.4034 13.0547
24.4405 13.0989
24.4776 13.1753
24.5148 13.2876
24.5519 13.4408
24.5840 13.6109
24.6160 13.8216
24.6481 14.0796
24.6641 14.2290
24.6801 14.3937
24.6962 14.5751
24.7122 14.7749
24.7282 14.9950
24.7443 15.2376
24.7603 15.5053
24.7763 15.8009
24.7923 16.1279
24.8084 16.4901
24.8269 16.9601
24.8455 17.4919
24.8641 18.0965
24.8826 18.7868
24.8919 19.1695
24.9012 19.5796
24.9105 20.0204
24.9198 20.4948
24.9290 21.0066
24.9383 21.5597
24.9476 22.1589
24.9569 22.8096
24.9645 23.3852
24.9721 24.0028
24.9797 24.6684
24.9873 25.3855
24.9949 26.1620
25.0024 27.0024
25.0100 27.9157
25.0176 28.9106
25.0252 29.9988
25.0328 31.1894
25.0404 32.4988
25.0480 33.9392
25.0556 35.5319
25.0632 37.2930
25.0708 39.2473
25.0784 41.4207
25.0834 43.0088
25.0885 44.7138
25.0936 46.5489
25.0986 48.5252
25.1037 50.6543
25.1087 52.9489
25.1138 55.4225
25.1189 58.0891
25.1240 60.9933
25.1291 64.1259
25.1342 67.5039
25.1393 71.1449
25.1444 75.0674
25.1495 79.2900
25.1546 83.8320
25.1597 88.7030
25.1648 93.9419
25.1700 99.5588
25.1751 105.573
25.1802 111.991
25.1853 118.855
25.1904 126.171
25.1955 133.954
25.2006 142.202
25.2062 151.790
25.2117 161.960
25.2173 172.737
25.2229 184.128
25.2285 196.130
25.2340 208.738
25.2396 221.942
25.2452 235.722
25.2503 248.850
25.2554 262.418
25.2605 276.397
25.2656 290.752
25.2707 305.443
25.2758 320.424
25.2809 335.644
25.2860 351.017
25.2939 375.046
25.3018 399.090
25.3097 422.941
25.3176 446.251
25.3278 475.200
25.3380 502.108
25.3480 525.797
25.3580 546.382
25.3654 559.457
25.3729 570.313
25.3797 578.121
25.3864 583.872
25.3932 587.495
25.4000 588.947
25.4081 587.803
25.4163 583.535
25.4238 576.866
25.4314 567.708
25.4389 556.181
25.4464 542.491
25.4547 525.124
25.4630 505.668
25.4713 484.451
25.4796 461.846
25.4879 438.149
25.4962 413.732
25.5045 388.929
25.5128 364.056
25.5294 315.223
25.5377 291.748
25.5460 269.190
25.5536 249.549
25.5611 230.886
25.5686 213.217
25.5762 196.631
25.5837 181.107
25.5913 166.693
25.5988 153.354
25.6064 141.067
25.6105 134.740
25.6147 128.714
25.6188 122.980
25.6230 117.531
25.6271 112.357
25.6313 107.450
25.6354 102.798
25.6395 98.4036
25.6437 94.2347
25.6478 90.2922
25.6520 86.5661
25.6561 83.0546
25.6603 79.7310
25.6644 76.5942
25.6686 73.6346
25.6727 70.8495
25.6788 67.0675
25.6848 63.6010
25.6908 60.4130
25.6969 57.4904
25.7029 54.8010
25.7089 52.3330
25.7150 50.0588
25.7210 47.9682
25.7252 46.6253
25.7293 45.3547
25.7376 43.0124
25.7459 40.9077
25.7542 39.0129
25.7625 37.2978
25.7708 35.7422
25.7791 34.3267
25.7874 33.0360
25.7957 31.8523
25.8040 30.7647
25.8123 29.7623
25.8206 28.8369
25.8289 27.9781
25.8372 27.1800
25.8455 26.4364
25.8538 25.7429
25.8621 25.0930
25.8704 24.4836
25.8787 23.9110
25.8870 23.3721
25.8953 22.8640
25.9036 22.3842
25.9202 21.5013
25.9368 20.7069
25.9533 19.9896
25.9699 19.3383
25.9865 18.7452
26.0024 18.2263
26.0182 17.7483
26.0341 17.3069
26.0499 16.8980
26.0657 16.5184
26.0816 16.1651
26.0974 15.8355
26.1133 15.5275
26.1291 15.2390
26.1449 14.9684
26.1608 14.7141
26.1766 14.4746
26.1925 14.2488
26.2083 14.0356
26.2400 13.6431
26.2732 13.2742
26.3064 12.9424
26.3395 12.6425
26.3727 12.3703
26.4059 12.1220
26.4391 11.8947
26.4723 11.6858
26.5055 11.4932
26.5387 11.3150
26.5719 11.1495
26.6051 10.9955
26.6383 10.8517
26.6714 10.7171
26.7046 10.5909
26.7378 10.4722
26.7710 10.3603
26.8042 10.2548
26.8374 10.1550
26.9038 9.97063
26.9702 9.80403
27.0365 9.65255
27.0878 9.54446
27.1391 9.44333
27.1904 9.34841
27.2417 9.25915
27.2930 9.17492
27.3443 9.09524
27.4469 8.94773
27.5495 8.81391
27.6521 8.69178
27.7547 8.57963
27.8572 8.47608
27.9478 8.39090
28.0383 8.31086
28.1288 8.23540
28.2193 8.16403
28.3098 8.09637
28.4004 8.03208
28.5814 7.91270
28.7624 7.80314
28.9435 7.70195
29.1245 7.60808
29.3055 7.52055
29.4504 7.45452
29.5952 7.39167
29.7400 7.33168
29.8848 7.27430
30.1745 7.16647
30.4642 7.06665
30.7538 6.97363
31.0435 6.88645
31.3331 6.80475
31.6228 6.72686
31.8787 6.66131
32.1345 6.59862
32.3904 6.53836
32.6463 6.48032
32.9022 6.42429
33.1580 6.37008
33.4139 6.31755
33.6698 6.26655
34.0216 6.19875
34.3734 6.13340
34.7253 6.07034
35.0771 6.00946
35.4289 5.95072
35.7807 5.89422
35.9567 5.86686
36.1326 5.84017
36.3085 5.81420
36.4844 5.78903
36.6923 5.76048
36.9002 5.73344
37.1081 5.70816
37.3160 5.68538
37.5239 5.66572
37.6278 5.65737
37.7318 5.65024
37.8357 5.64454
37.9397 5.64056
38.0436 5.63863
38.1476 5.63917
38.2435 5.64231
38.3395 5.64860
38.4354 5.65887
38.5314 5.67414
38.5794 5.68403
38.6273 5.69569
38.6753 5.70937
38.7233 5.72534
38.7713 5.74394
38.8192 5.76557
38.8672 5.79071
38.9152 5.81993
38.9632 5.85395
39.0111 5.89367
39.0591 5.94017
39.1071 5.99484
39.1551 6.05942
39.1791 6.09608
39.2030 6.13608
39.2270 6.17981
39.2510 6.22771
39.2750 6.28027
39.2990 6.33805
39.3310 6.42447
39.3630 6.52334
39.3949 6.63714
39.4109 6.70054
39.4269 6.76887
39.4429 6.84270
39.4589 6.92253
39.4749 7.00908
39.4909 7.10314
39.5069 7.20559
39.5229 7.31750
39.5389 7.44009
39.5549 7.57481
39.5659 7.67541
39.5768 7.78310
39.5878 7.89883
39.5988 8.02322
39.6098 8.15746
39.6208 8.30243
39.6318 8.45966
39.6428 8.63036
39.6538 8.81656
39.6648 9.01995
39.6758 9.24324
39.6868 9.48879
39.6978 9.76025
39.7088 10.0609
39.7198 10.3957
39.7308 10.7692
39.7381 11.0445
39.7455 11.3420
39.7529 11.6641
39.7603 12.0131
39.7676 12.3918
39.7750 12.8032
39.7824 13.2505
39.7897 13.7366
39.7971 14.2666
39.8045 14.8439
39.8118 15.4731
39.8192 16.1588
39.8266 16.9061
39.8339 17.7202
39.8413 18.6066
39.8487 19.5699
39.8546 20.4067
39.8605 21.3012
39.8665 22.2565
39.8724 23.2760
39.8783 24.3628
39.8843 25.5201
39.8902 26.7511
39.8961 28.0589
39.9020 29.4462
39.9080 30.9159
39.9139 32.4705
39.9198 34.1122
39.9258 35.8429
39.9317 37.6643
39.9376 39.5774
39.9435 41.5795
39.9501 43.8951
39.9566 46.3188
39.9631 48.8526
39.9696 51.4942
39.9827 57.0906
39.9957 63.0591
40.0088 69.3501
40.0218 75.8761
40.0349 82.5504
40.0479 89.2492
40.0669 98.7865
40.0764 103.343
40.0859 107.678
40.0953 111.746
40.1048 115.483
40.1142 118.796
40.1235 121.695
40.1328 124.141
40.1422 126.100
40.1491 127.228
40.1561 128.059
40.1630 128.587
40.1700 128.809
40.1778 128.689
40.1857 128.181
40.1935 127.289
40.2013 126.025
40.2113 123.906
40.2212 121.245
40.2312 118.087
40.2411 114.483
40.2517 110.216
40.2623 105.581
40.2729 100.653
40.2835 95.5165
40.3046 84.8891
40.3258 74.2679
40.3393 67.7236
40.3528 61.4710
40.3662 55.5788
40.3730 52.7832
40.3797 50.1001
40.3903 46.1052
40.4009 42.3949
40.4062 40.6458
40.4115 38.9713
40.4168 37.3677
40.4220 35.8341
40.4273 34.3668
40.4326 32.9699
40.4379 31.6391
40.4432 30.3729
40.4485 29.1672
40.4538 28.0246
40.4591 26.9408
40.4644 25.9137
40.4697 24.9394
40.4750 24.0193
40.4803 23.1493
40.4856 22.3274
40.4909 21.5497
40.4961 20.8172
40.5014 20.1260
40.5067 19.4742
40.5120 18.8585
40.5173 18.2792
40.5226 17.7332
40.5279 17.2186
40.5332 16.7327
40.5385 16.2757
40.5438 15.8449
40.5491 15.4386
40.5544 15.0548
40.5597 14.6935
40.5650 14.3518
40.5702 14.0298
40.5808 13.4377
40.5914 12.9086
40.6020 12.4338
40.6126 12.0072
40.6232 11.6221
40.6338 11.2740
40.6443 10.9578
40.6549 10.6700
40.6655 10.4069
40.6761 10.1659
40.6867 9.94411
40.6973 9.73983
40.7079 9.55075
40.7184 9.37563
40.7338 9.14247
40.7492 8.93186
40.7646 8.74079
40.7800 8.56685
40.7954 8.40775
40.8108 8.26183
40.8262 8.12761
40.8416 8.00390
40.8628 7.84870
40.8840 7.70885
40.9051 7.58230
40.9263 7.46739
40.9475 7.36269
40.9687 7.26713
40.9898 7.17966
41.0110 7.09942
41.0322 7.02563
41.0533 6.95774
41.0957 6.83734
41.1380 6.73452
41.1804 6.64641
41.2150 6.58366
41.2497 6.52825
41.2843 6.47933
41.3189 6.43621
41.3882 6.36515
41.4575 6.31149
41.4999 6.28615
41.5422 6.26593
41.6269 6.23952
41.7116 6.23027
41.7963 6.23708
41.8810 6.25957
41.9656 6.29798
42.0503 6.35314
42.1350 6.42645
42.2120 6.51059
42.2890 6.61353
42.3660 6.73797
42.4045 6.80930
42.4430 6.88735
42.4815 6.97271
42.5200 7.06601
42.5585 7.16800
42.5970 7.27947
42.6355 7.40144
42.6739 7.53493
42.7124 7.68124
42.7509 7.84181
42.7933 8.03695
42.8356 8.25385
42.8780 8.49556
42.9203 8.76546
42.9627 9.06780
43.0050 9.40735
43.0473 9.79009
43.0897 10.2232
43.1109 10.4613
43.1320 10.7154
43.1532 10.9868
43.1744 11.2772
43.1955 11.5884
43.2167 11.9221
43.2379 12.2806
43.2591 12.6663
43.2802 13.0823
43.3014 13.5312
43.3226 14.0169
43.3437 14.5433
43.3649 15.1152
43.3861 15.7380
43.4073 16.4178
43.4284 17.1619
43.4496 17.9791
43.4708 18.8787
43.4919 19.8727
43.5131 20.9753
43.5343 22.2038
43.5555 23.5778
43.5661 24.3276
43.5766 25.1231
43.5872 25.9699
43.5978 26.8711
43.6132 28.2925
43.6286 29.8600
43.6392 31.0355
43.6498 32.3000
43.6604 33.6635
43.6709 35.1362
43.6815 36.7340
43.6921 38.4695
43.7027 40.3639
43.7133 42.4343
43.7239 44.7089
43.7345 47.2116
43.7450 49.9798
43.7556 53.0462
43.7609 54.7089
43.7662 56.4608
43.7715 58.3114
43.7768 60.2677
43.7821 62.3415
43.7874 64.5328
43.7927 66.8543
43.7980 69.3150
43.8037 72.1746
43.8095 75.2204
43.8153 78.4778
43.8211 81.9509
43.8268 85.6684
43.8326 89.6351
43.8384 93.8833
43.8442 98.4180
43.8499 103.276
43.8557 108.461
43.8615 114.015
43.8673 119.942
43.8730 126.288
43.8788 133.055
43.8846 140.281
43.8904 147.992
43.8957 155.526
43.9009 163.499
43.9062 171.963
43.9115 180.908
43.9168 190.388
43.9221 200.390
43.9274 210.953
43.9327 222.096
43.9380 233.863
43.9433 246.228
43.9486 259.231
43.9539 272.888
43.9592 287.242
43.9645 302.253
43.9698 317.958
43.9750 334.365
43.9808 353.105
43.9866 372.662
43.9924 393.104
43.9981 414.358
44.0039 436.489
44.0097 459.404
44.0155 483.122
44.0212 507.618
44.0318 554.488
44.0424 603.566
44.0530 654.618
44.0636 707.149
44.0847 814.878
44.1059 922.192
44.1165 974.063
44.1271 1023.78
44.1377 1070.60
44.1483 1113.79
44.1580 1149.78
44.1677 1181.61
44.1775 1208.88
44.1872 1231.18
44.1954 1245.90
44.2036 1256.69
44.2118 1263.45
44.2200 1266.12
44.2233 1266.03
44.2340 1261.19
44.2446 1249.50
44.2553 1231.19
44.2659 1206.57
44.2774 1173.58
44.2889 1134.53
44.3003 1090.13
44.3118 1041.31
44.3238 986.325
44.3358 928.473
44.3598 808.310
44.3838 688.395
44.3959 630.521
44.4079 574.955
44.4150 543.346
44.4220 512.827
44.4291 483.378
44.4362 455.136
44.4433 428.062
44.4504 402.257
44.4575 377.701
44.4646 354.396
44.4706 335.619
44.4766 317.759
44.4826 300.744
44.4886 284.617
44.4946 269.303
44.5006 254.832
44.5066 241.155
44.5126 228.244
44.5186 216.053
44.5246 204.593
44.5306 193.815
44.5366 183.687
44.5427 174.165
44.5487 165.248
44.5547 156.890
44.5607 149.062
44.5667 141.722
44.5727 134.865
44.5787 128.440
44.5847 122.443
44.5907 116.826
44.5967 111.583
44.6027 106.681
44.6087 102.098
44.6147 97.8035
44.6207 93.7928
44.6267 90.0388
44.6327 86.5236
44.6387 83.2246
44.6447 80.1370
44.6507 77.2402
44.6567 74.5204
44.6665 70.4133
44.6764 66.6988
44.6862 63.3272
44.6960 60.2586
44.7058 57.4550
44.7156 54.8917
44.7255 52.5387
44.7353 50.3728
44.7451 48.3715
44.7549 46.5211
44.7648 44.8041
44.7746 43.2067
44.7844 41.7158
44.7942 40.3240
44.8040 39.0205
44.8139 37.7973
44.8259 36.4003
44.8379 35.1015
44.8499 33.8911
44.8619 32.7616
44.8739 31.7036
44.8859 30.7123
44.8979 29.7804
44.9099 28.9043
44.9219 28.0779
44.9339 27.2981
44.9579 25.8644
44.9820 24.5776
45.0060 23.4175
45.0322 22.2765
45.0584 21.2489
45.0845 20.3193
45.1107 19.4752
45.1348 18.7672
45.1588 18.1159
45.1828 17.5147
45.2068 16.9588
45.2308 16.4433
45.2548 15.9647
45.2788 15.5195
45.3028 15.1046
45.3269 14.7172
45.3509 14.3551
45.3749 14.0163
45.3989 13.6986
45.4469 13.1206
45.4949 12.6095
45.5233 12.3350
45.5517 12.0789
45.5801 11.8398
45.6084 11.6165
45.6652 11.2120
45.7219 10.8575
45.7787 10.5466
45.8354 10.2738
45.8922 10.0348
45.9489 9.82599
46.0013 9.65753
46.0537 9.51054
46.1061 9.38357
46.1585 9.27546
46.2065 9.19210
46.2546 9.12325
46.3026 9.06848
46.3506 9.02753
46.3986 9.00026
46.4467 8.98666
46.4947 8.98686
46.5427 9.00111
46.5907 9.02982
46.6387 9.07349
46.6868 9.13283
46.7348 9.20866
46.7828 9.30202
46.8308 9.41407
46.8789 9.54624
46.9269 9.70024
46.9793 9.89556
47.0317 10.1225
47.0840 10.3847
47.1364 10.6867
47.1888 11.0337
47.2412 11.4318
47.2936 11.8885
47.3460 12.4125
47.3940 12.9615
47.4420 13.5863
47.4901 14.2991
47.5141 14.6929
47.5381 15.1144
47.5621 15.5663
47.5861 16.0506
47.6101 16.5706
47.6341 17.1295
47.6581 17.7308
47.6822 18.3787
47.7062 19.0777
47.7302 19.8329
47.7607 20.8848
47.7913 22.0514
47.8219 23.3489
47.8371 24.0528
47.8524 24.7971
47.8677 25.5848
47.8830 26.4192
47.8983 27.3042
47.9135 28.2436
47.9288 29.2421
47.9441 30.3045
47.9594 31.4363
47.9746 32.6429
47.9867 33.6494
47.9987 34.7104
48.0107 35.8300
48.0227 37.0116
48.0347 38.2619
48.0467 39.5843
48.0587 40.9869
48.0707 42.4738
48.0827 44.0549
48.0947 45.7355
48.1067 47.5277
48.1187 49.4386
48.1307 51.4829
48.1427 53.6704
48.1547 56.0194
48.1667 58.5429
48.1787 61.2646
48.1908 64.2048
48.2028 67.3893
48.2148 70.8452
48.2268 74.6131
48.2328 76.6272
48.2388 78.7311
48.2448 80.9378
48.2508 83.2468
48.2568 85.6689
48.2628 88.2120
48.2688 90.8892
48.2748 93.7008
48.2808 96.6613
48.2868 99.7814
48.2928 103.079
48.2988 106.555
48.3048 110.229
48.3108 114.116
48.3168 118.239
48.3228 122.602
48.3288 127.230
48.3348 132.144
48.3408 137.375
48.3468 142.928
48.3528 148.838
48.3588 155.131
48.3648 161.848
48.3708 168.997
48.3768 176.623
48.3828 184.761
48.3889 193.462
48.3949 202.737
48.4009 212.643
48.4069 223.222
48.4129 234.542
48.4189 246.611
48.4249 259.500
48.4309 273.260
48.4369 287.972
48.4429 303.643
48.4489 320.354
48.4549 338.164
48.4603 355.378
48.4658 373.598
48.4713 392.871
48.4767 413.205
48.4822 434.721
48.4876 457.427
48.4931 481.370
48.4985 506.545
48.5040 533.087
48.5095 560.991
48.5149 590.295
48.5204 620.976
48.5258 653.180
48.5313 686.880
48.5367 722.098
48.5422 758.787
48.5482 801.039
48.5542 845.108
48.5602 891.065
48.5662 938.901
48.5722 988.681
48.5782 1040.21
48.5902 1148.58
48.6022 1263.69
48.6142 1384.65
48.6262 1510.71
48.6382 1640.52
48.6623 1906.15
48.6863 2167.96
48.6983 2292.71
48.7103 2410.50
48.7223 2519.38
48.7343 2617.40
48.7454 2696.72
48.7565 2763.88
48.7675 2817.75
48.7786 2857.41
48.7893 2881.57
48.8000 2891.52
48.8036 2891.65
48.8152 2881.08
48.8267 2853.93
48.8383 2810.75
48.8499 2752.44
48.8617 2678.34
48.8735 2591.03
48.8854 2492.17
48.8972 2383.66
48.9095 2262.69
48.9218 2135.44
48.9463 1870.81
48.9709 1605.48
48.9831 1476.87
48.9954 1352.79
49.0038 1271.28
49.0122 1192.77
49.0205 1117.37
49.0289 1045.27
49.0373 976.583
49.0457 911.406
49.0540 849.775
49.0624 791.697
49.0685 751.335
49.0747 712.848
49.0808 676.207
49.0870 641.376
49.0931 608.313
49.0992 576.971
49.1054 547.297
49.1115 519.283
49.1176 492.778
49.1238 467.770
49.1299 444.197
49.1361 421.996
49.1422 401.104
49.1483 381.459
49.1545 362.997
49.1606 345.685
49.1668 329.405
49.1729 314.128
49.1790 299.795
49.1852 286.350
49.1913 273.742
49.1975 261.916
49.2036 250.825
49.2097 240.421
49.2159 230.660
49.2220 221.498
49.2282 212.896
49.2343 204.816
49.2404 197.222
49.2466 190.081
49.2527 183.361
49.2588 177.043
49.2655 170.552
49.2722 164.463
49.2789 158.744
49.2856 153.375
49.2979 144.323
49.3102 136.191
49.3225 128.859
49.3348 122.221
49.3470 116.189
49.3593 110.686
49.3716 105.647
49.3839 101.023
49.3961 96.7563
49.4084 92.8123
49.4207 89.1557
49.4330 85.7592
49.4453 82.5915
49.4575 79.6328
49.4698 76.8635
49.4821 74.2684
49.4944 71.8281
49.5066 69.5313
49.5189 67.3661
49.5312 65.3220
49.5435 63.3893
49.5558 61.5597
49.5803 58.1808
49.6049 55.1295
49.6294 52.3637
49.6540 49.8469
49.6785 47.5496
49.6986 45.8132
49.7187 44.1944
49.7388 42.6815
49.7589 41.2651
49.7790 39.9368
49.7991 38.6889
49.8192 37.5149
49.8393 36.4087
49.8594 35.3645
49.8795 34.3784
49.8996 33.4455
49.9196 32.5619
49.9598 30.9288
50.0000 29.4541
50.0429 28.0324
50.0857 26.7468
50.1286 25.5796
50.1714 24.5164
50.2143 23.5442
50.2572 22.6527
50.3000 21.8328
50.3429 21.0768
50.3769 20.5176
50.4109 19.9913
50.4449 19.4952
50.4789 19.0271
50.5130 18.5846
50.5470 18.1657
50.5810 17.7688
50.6150 17.3922
50.6831 16.6941
50.7511 16.0615
50.8191 15.4859
50.8872 14.9604
50.9312 14.6441
50.9752 14.3449
51.0193 14.0614
51.0633 13.7926
51.1513 13.2944
51.2394 12.8430
51.3274 12.4323
51.4155 12.0572
51.5035 11.7134
51.5916 11.3972
51.6596 11.1697
51.7277 10.9557
51.7957 10.7539
51.8638 10.5636
51.9318 10.3836
51.9998 10.2130
52.1359 9.89728
52.2720 9.61151
52.4081 9.35194
52.5442 9.11529
52.6802 8.89881
52.7763 8.75686
52.8723 8.62309
52.9684 8.49691
53.0645 8.37780
53.1605 8.26526
53.2566 8.15890
53.3526 8.05836
53.4487 7.96336
53.6248 7.80267
53.8009 7.65849
53.9770 7.53007
54.1531 7.41708
54.2411 7.36641
54.3292 7.31969
54.4172 7.27704
54.5053 7.23859
54.5933 7.20452
54.6814 7.17506
54.7694 7.15048
54.8575 7.13112
54.9696 7.11465
55.0816 7.10822
55.1937 7.11300
55.3058 7.13059
55.4178 7.16313
55.5299 7.21306
55.5859 7.24543
55.6420 7.28329
55.6980 7.32714
55.7540 7.37751
55.8421 7.47139
55.9301 7.58574
56.0182 7.72399
56.1062 7.89027
56.1503 7.98548
56.1943 8.08970
56.2383 8.20374
56.2823 8.32851
56.3264 8.46509
56.3704 8.61456
56.4144 8.77828
56.4584 8.95761
56.5185 9.23040
56.5785 9.54006
56.6385 9.89243
56.6986 10.2943
56.7586 10.7543
56.7886 11.0091
56.8186 11.2824
56.8487 11.5758
56.8787 11.8913
56.9087 12.2306
56.9387 12.5961
56.9827 13.1849
57.0268 13.8443
57.0708 14.5856
57.1148 15.4212
57.1588 16.3670
57.1809 16.8869
57.2029 17.4416
57.2249 18.0346
57.2469 18.6685
57.2689 19.3476
57.2909 20.0758
57.3229 21.2330
57.3490 22.2688
57.3750 23.4016
57.4010 24.6434
57.4270 26.0079
57.4400 26.7416
57.4530 27.5125
57.4660 28.3232
57.4790 29.1757
57.4920 30.0743
57.5051 31.0216
57.5181 32.0213
57.5311 33.0765
57.5421 34.0172
57.5531 35.0042
57.5641 36.0406
57.5751 37.1287
57.5861 38.2743
57.5971 39.4793
57.6081 40.7503
57.6191 42.0899
57.6301 43.5060
57.6411 45.0033
57.6521 46.5884
57.6631 48.2670
57.6742 50.0505
57.6852 51.9446
57.6962 53.9631
57.7072 56.1138
57.7152 57.7714
57.7232 59.5103
57.7312 61.3406
57.7392 63.2646
57.7502 66.0827
57.7612 69.1173
57.7722 72.3927
57.7832 75.9330
57.7942 79.7760
57.7997 81.8191
57.8052 83.9508
57.8107 86.1805
57.8162 88.5059
57.8217 90.9369
57.8272 93.4801
57.8327 96.1472
57.8382 98.9359
57.8438 101.864
57.8493 104.930
57.8548 108.154
57.8603 111.533
57.8658 115.083
57.8713 118.815
57.8768 122.748
57.8823 126.880
57.8878 131.231
57.8933 135.814
57.8988 140.653
57.9043 145.746
57.9098 151.117
57.9153 156.784
57.9208 162.775
57.9263 169.088
57.9318 175.766
57.9373 182.805
57.9428 190.252
57.9483 198.104
57.9538 206.397
57.9593 215.156
57.9648 224.423
57.9703 234.190
57.9758 244.522
57.9813 255.409
57.9868 266.918
57.9923 279.038
57.9978 291.819
58.0033 305.291
58.0089 319.512
58.0144 334.462
58.0199 350.197
58.0254 366.748
58.0309 384.180
58.0364 402.460
58.0419 421.650
58.0474 441.779
58.0529 462.915
58.0584 485.010
58.0639 508.128
58.0694 532.293
58.0749 557.575
58.0804 583.905
58.0859 611.344
58.0914 639.909
58.0999 686.355
58.1084 735.559
58.1169 787.533
58.1254 842.197
58.1339 899.642
58.1424 959.667
58.1509 1022.32
58.1594 1087.32
58.1704 1174.85
58.1814 1265.64
58.1924 1359.26
58.2034 1455.06
58.2475 1844.78
58.2695 2030.43
58.2805 2117.36
58.2915 2198.89
58.3025 2274.34
58.3136 2342.42
58.3246 2402.23
58.3357 2452.96
58.3468 2494.07
58.3578 2524.70
58.3689 2544.48
58.3800 2553.10
58.3840 2553.45
58.3971 2544.32
58.4102 2519.71
58.4233 2480.16
58.4364 2426.52
58.4487 2364.62
58.4609 2292.45
58.4732 2211.23
58.4854 2122.37
58.4979 2025.10
58.5104 1922.76
58.5354 1708.86
58.5603 1491.95
58.5728 1385.59
58.5853 1282.00
58.5950 1204.34
58.6046 1129.28
58.6143 1057.00
58.6239 987.751
58.6336 921.624
58.6432 858.882
58.6529 799.530
58.6625 743.601
58.6716 694.044
58.6807 647.537
58.6898 603.920
58.6989 563.215
58.7080 525.238
58.7171 489.967
58.7261 457.241
58.7352 426.936
58.7415 407.415
58.7477 388.936
58.7540 371.455
58.7602 354.955
58.7665 339.338
58.7727 324.612
58.7789 310.687
58.7852 297.566
58.7914 285.167
58.7977 273.470
58.8039 262.439
58.8102 252.051
58.8164 242.239
58.8227 232.998
58.8289 224.267
58.8352 216.042
58.8459 202.894
58.8567 190.985
58.8675 180.183
58.8783 170.379
58.8891 161.449
58.8999 153.306
58.9107 145.865
58.9215 139.055
58.9322 132.798
58.9430 127.040
58.9538 121.727
58.9646 116.819
58.9754 112.265
58.9862 108.033
58.9970 104.091
59.0078 100.416
59.0203 96.4494
59.0327 92.7714
59.0452 89.3492
59.0577 86.1573
59.0702 83.1736
59.0827 80.3785
59.0952 77.7551
59.1077 75.2883
59.1202 72.9646
59.1327 70.7724
59.1452 68.7009
59.1576 66.7408
59.1826 63.1218
59.2076 59.8571
59.2235 57.9414
59.2394 56.1393
59.2553 54.4413
59.2712 52.8401
59.2871 51.3262
59.3030 49.8939
59.3189 48.5371
59.3348 47.2510
59.3666 44.8676
59.3984 42.7103
59.4302 40.7488
59.4620 38.9601
59.4870 37.6613
59.5119 36.4479
59.5369 35.3113
59.5619 34.2458
59.5869 33.2444
59.6119 32.3026
59.6369 31.4152
59.6618 30.5779
59.6868 29.7865
59.7118 29.0382
59.7368 28.3295
59.7618 27.6574
59.8117 26.4129
59.8617 25.2869
59.9117 24.2638
59.9616 23.3311
60.0116 22.4778
60.0616 21.6948
60.1115 20.9740
60.1615 20.3089
60.2114 19.6936
60.2614 19.1229
60.3068 18.6390
60.3523 18.1853
60.3977 17.7591
60.4431 17.3581
60.4885 16.9800
60.5339 16.6232
60.5794 16.2860
60.6248 15.9668
60.6702 15.6642
60.7156 15.3772
60.7611 15.1045
60.8065 14.8452
60.8973 14.3631
60.9882 13.9244
61.0881 13.4854
61.1880 13.0862
61.2880 12.7218
61.3879 12.3878
61.4878 12.0806
61.5877 11.7972
61.6877 11.5350
61.7876 11.2917
61.8693 11.1054
61.9511 10.9295
62.0329 10.7633
62.1146 10.6060
62.1964 10.4567
62.2781 10.3148
62.3599 10.1799
62.4417 10.0513
62.5234 9.92885
62.6052 9.81206
62.7687 9.59419
62.9322 9.39524
63.0957 9.21327
63.2330 9.07259
63.3702 8.94233
63.5075 8.82198
63.6447 8.71128
63.7682 8.61985
63.8918 8.53638
64.0153 8.46122
64.1388 8.39500
64.2623 8.33864
64.3241 8.31454
64.3858 8.29345
64.4476 8.27566
64.5094 8.26149
64.5711 8.25134
64.6329 8.24566
64.7084 8.24557
64.7839 8.25414
64.8594 8.27286
64.9348 8.30360
64.9726 8.32421
65.0103 8.34877
65.0481 8.37768
65.0858 8.41140
65.1236 8.45047
65.1613 8.49547
65.1990 8.54709
65.2368 8.60614
65.2814 8.68678
65.3260 8.78090
65.3706 8.89071
65.4152 9.01883
65.4598 9.16854
65.4821 9.25268
65.5044 9.34376
65.5267 9.44244
65.5490 9.54945
65.5713 9.66560
65.5936 9.79181
65.6125 9.90729
65.6314 10.0314
65.6502 10.1649
65.6691 10.3087
65.6880 10.4639
65.7068 10.6315
65.7257 10.8128
65.7446 11.0093
65.7635 11.2227
65.7823 11.4546
65.8012 11.7074
65.8201 11.9835
65.8389 12.2860
65.8578 12.6183
65.8767 12.9845
65.8955 13.3897
65.9127 13.7971
65.9299 14.2469
65.9470 14.7465
65.9642 15.3036
65.9830 15.9960
65.9925 16.3784
66.0019 16.7878
66.0114 17.2282
66.0208 17.7019
66.0302 18.2137
66.0397 18.7669
66.0491 19.3678
66.0585 20.0206
66.0680 20.7332
66.0774 21.5114
66.0868 22.3652
66.0963 23.3023
66.1057 24.3352
66.1151 25.4739
66.1246 26.7343
66.1340 28.1306
66.1435 29.6798
66.1529 31.3990
66.1623 33.3130
66.1718 35.4411
66.1812 37.8135
66.1906 40.4534
66.2001 43.3971
66.2048 44.9922
66.2095 46.6716
66.2142 48.4470
66.2189 50.3197
66.2237 52.2946
66.2284 54.3721
66.2331 56.5664
66.2378 58.8784
66.2425 61.3136
66.2472 63.8720
66.2520 66.5703
66.2567 69.4088
66.2614 72.3937
66.2661 75.5239
66.2713 79.1272
66.2764 82.9270
66.2816 86.9312
66.2867 91.1394
66.2918 95.5761
66.2970 100.241
66.3021 105.142
66.3073 110.277
66.3124 115.673
66.3176 121.328
66.3227 127.249
66.3279 133.430
66.3330 139.901
66.3382 146.644
66.3433 153.690
66.3485 161.017
66.3579 175.252
66.3673 190.496
66.3768 206.794
66.3862 224.113
66.3956 242.480
66.4051 261.837
66.4145 282.189
66.4239 303.445
66.4385 338.007
66.4531 374.302
66.4677 411.965
66.4823 450.521
66.5200 550.369
66.5389 597.638
66.5578 641.049
66.5715 669.332
66.5852 694.231
66.5946 709.133
66.6041 722.038
66.6181 737.321
66.6322 747.590
66.6411 751.411
66.6500 753.082
66.6526 753.163
66.6608 752.208
66.6691 749.398
66.6774 744.759
66.6857 738.337
66.6940 730.182
66.7023 720.359
66.7105 708.947
66.7188 696.050
66.7274 681.231
66.7359 665.054
66.7530 629.070
66.7701 589.188
66.7872 546.573
66.8106 486.006
66.8339 425.137
66.8510 381.653
66.8681 340.007
66.8767 320.054
66.8852 300.793
66.8938 282.230
66.9024 264.447
66.9109 247.432
66.9195 231.247
66.9280 215.866
66.9366 201.330
66.9451 187.604
66.9537 174.710
66.9622 162.606
66.9708 151.300
66.9790 141.208
66.9871 131.787
66.9953 123.012
67.0035 114.865
67.0116 107.297
67.0198 100.297
67.0280 93.8173
67.0361 87.8435
67.0443 82.3304
67.0525 77.2613
67.0606 72.5944
67.0688 68.3125
67.0770 64.3774
67.0851 60.7723
67.0933 57.4630
67.1014 54.4336
67.1100 51.5275
67.1186 48.8784
67.1271 46.4574
67.1357 44.2491
67.1442 42.2287
67.1528 40.3831
67.1613 38.6914
67.1699 37.1426
67.1784 35.7193
67.1870 34.4125
67.1956 33.2077
67.2041 32.0977
67.2127 31.0707
67.2212 30.1208
67.2298 29.2384
67.2383 28.4190
67.2508 27.3243
67.2632 26.3332
67.2757 25.4304
67.2881 24.6059
67.3006 23.8488
67.3130 23.1518
67.3254 22.5074
67.3379 21.9097
67.3503 21.3530
67.3628 20.8339
67.3752 20.3481
67.3876 19.8925
67.4001 19.4638
67.4125 19.0603
67.4250 18.6795
67.4374 18.3194
67.4545 17.8551
67.4716 17.4230
67.4887 17.0200
67.5059 16.6432
67.5230 16.2902
67.5401 15.9588
67.5572 15.6471
67.5743 15.3534
67.5914 15.0763
67.6085 14.8144
67.6256 14.5666
67.6427 14.3317
67.6770 13.8971
67.7112 13.5039
67.7345 13.2567
67.7578 13.0248
67.7812 12.8067
67.8045 12.6014
67.8278 12.4077
67.8512 12.2247
67.8745 12.0516
67.8978 11.8876
67.9445 11.5841
67.9912 11.3097
68.0378 11.0603
68.0845 10.8328
68.1187 10.6782
68.1529 10.5329
68.1871 10.3962
68.2214 10.2673
68.2556 10.1455
68.2898 10.0303
68.3240 9.92113
68.3582 9.81756
68.4267 9.62552
68.4951 9.45125
68.5636 9.29232
68.6320 9.14676
68.6849 9.04234
68.7378 8.94425
68.7906 8.85187
68.8435 8.76472
68.8964 8.68229
68.9493 8.60420
69.0551 8.45952
69.1608 8.32820
69.2666 8.20831
69.3724 8.09828
69.4781 7.99680
69.5652 7.91885
69.6523 7.84542
69.7395 7.77605
69.8266 7.71036
69.9137 7.64798
70.0008 7.58865
70.1750 7.47808
70.3492 7.37686
70.5234 7.28328
70.6976 7.19620
70.8718 7.11482
71.0087 7.05438
71.1456 6.99669
71.2824 6.94146
71.4193 6.88847
71.6931 6.78837
71.9668 6.69501
72.2406 6.60730
72.5143 6.52437
72.7881 6.44553
73.0618 6.37022
73.3356 6.29796
73.6093 6.22839
73.8831 6.16120
74.1568 6.09613
74.4306 6.03300
74.7044 5.97166
74.9781 5.91201
75.2519 5.85401
75.5132 5.80019
75.7745 5.74798
76.0358 5.69750
76.2971 5.64901
76.4278 5.62561
76.5584 5.60285
76.6891 5.58082
76.8197 5.55958
76.9504 5.53924
77.0810 5.51991
77.2117 5.50171
77.3424 5.48485
77.4792 5.46888
77.6161 5.45493
77.7530 5.44335
77.8899 5.43458
78.0267 5.42914
78.1636 5.42772
78.3005 5.43113
78.3689 5.43498
78.4374 5.44044
78.5494 5.45336
78.6613 5.47202
78.7733 5.49752
78.8853 5.53123
78.9413 5.55169
78.9973 5.57485
79.0533 5.60103
79.1093 5.63054
79.1653 5.66377
79.2213 5.70113
79.2773 5.74315
79.3333 5.79034
79.4116 5.86625
79.4899 5.95553
79.5682 6.06068
79.6073 6.12012
79.6465 6.18471
79.6856 6.25498
79.7247 6.33145
79.7639 6.41479
79.8030 6.50567
79.8422 6.60496
79.8813 6.71354
79.9205 6.83252
79.9596 6.96304
80.0022 7.11993
80.0448 7.29429
80.0874 7.48853
80.1300 7.70550
80.1727 7.94868
80.2153 8.22210
80.2579 8.53065
80.3005 8.88018
80.3218 9.07263
80.3431 9.27810
80.3644 9.49796
80.3857 9.73332
80.4070 9.98587
80.4283 10.2571
80.4496 10.5488
80.4709 10.8634
80.4922 11.2032
80.5135 11.5708
80.5348 11.9697
80.5561 12.4033
80.5774 12.8761
80.5987 13.3929
80.6200 13.9597
80.6413 14.5836
80.6607 15.2076
80.6801 15.8935
80.6994 16.6505
80.7188 17.4892
80.7401 18.5234
80.7508 19.0904
80.7614 19.6951
80.7721 20.3418
80.7827 21.0334
80.7934 21.7752
80.8040 22.5723
80.8147 23.4315
80.8253 24.3579
80.8360 25.3594
80.8466 26.4447
80.8573 27.6228
80.8679 28.9044
80.8786 30.3011
80.8892 31.8259
80.8994 33.4149
80.9096 35.1479
80.9197 37.0403
80.9299 39.1068
80.9401 41.3699
80.9502 43.8477
80.9604 46.5621
80.9706 49.5336
80.9807 52.7932
80.9909 56.3654
80.9960 58.2795
81.0011 60.2788
81.0062 62.3709
81.0112 64.5597
81.0163 66.8538
81.0214 69.2484
81.0265 71.7571
81.0316 74.3743
81.0367 77.1148
81.0418 79.9721
81.0468 82.9559
81.0519 86.0709
81.0572 89.4849
81.0626 93.0535
81.0679 96.7818
81.0732 100.668
81.0786 104.731
81.0839 108.961
81.0892 113.379
81.0945 117.973
81.0999 122.766
81.1052 127.754
81.1158 138.321
81.1265 149.715
81.1371 161.965
81.1478 175.108
81.1584 189.135
81.1691 204.069
81.1797 219.910
81.1904 236.668
81.2011 254.290
81.2117 272.765
81.2224 292.049
81.2369 319.565
81.2514 348.290
81.2659 378.040
81.2805 408.509
81.3231 499.048
81.3444 542.760
81.3657 583.634
81.3763 602.590
81.3870 620.335
81.3976 636.713
81.4083 651.573
81.4202 666.257
81.4321 678.676
81.4441 688.702
81.4560 696.199
81.4680 701.107
81.4800 703.319
81.4840 703.452
81.5000 700.967
81.5131 695.391
81.5262 686.732
81.5393 675.129
81.5523 660.763
81.5704 636.833
81.5884 608.766
81.6037 582.315
81.6189 553.944
81.6342 524.141
81.6495 493.406
81.6800 431.038
81.6952 400.310
81.7105 370.401
81.7299 334.028
81.7396 316.735
81.7494 300.111
81.7591 284.194
81.7688 269.058
81.7785 254.725
81.7882 241.222
81.7958 231.197
81.8035 221.722
81.8111 212.790
81.8187 204.406
81.8264 196.572
81.8340 189.292
81.8416 182.565
81.8493 176.391
81.8569 170.762
81.8645 165.688
81.8722 161.161
81.8798 157.176
81.8874 153.729
81.8950 150.816
81.9027 148.432
81.9103 146.572
81.9214 144.791
81.9325 144.091
81.9436 144.455
81.9547 145.862
81.9616 147.264
81.9686 149.060
81.9755 151.245
81.9825 153.809
81.9894 156.752
81.9963 160.063
82.0033 163.736
82.0102 167.754
82.0241 176.818
82.0380 187.157
82.0518 198.683
82.0657 211.263
82.0782 223.384
82.0907 236.140
82.1032 249.404
82.1157 263.026
82.1309 279.976
82.1462 296.950
82.1614 313.649
82.1767 329.754
82.1920 344.951
82.2072 358.905
82.2225 371.324
82.2378 381.933
82.2532 390.581
82.2687 396.913
82.2843 400.810
82.3000 402.051
82.3086 401.591
82.3171 400.328
82.3257 398.269
82.3428 391.815
82.3565 384.461
82.3702 375.313
82.3838 364.668
82.3974 352.594
82.4183 331.547
82.4392 308.260
82.4663 276.053
82.4934 243.023
82.5082 225.168
82.5230 207.718
82.5378 190.838
82.5526 174.674
82.5661 160.586
82.5797 147.268
82.5932 134.769
82.6068 123.118
82.6135 117.611
82.6203 112.328
82.6271 107.252
82.6339 102.397
82.6406 97.7450
82.6474 93.3080
82.6542 89.0750
82.6609 85.0417
82.6683 80.8560
82.6757 76.9019
82.6831 73.1665
82.6905 69.6421
82.6979 66.3209
82.7053 63.1947
82.7127 60.2553
82.7201 57.4943
82.7275 54.8998
82.7349 52.4704
82.7423 50.1942
82.7496 48.0630
82.7570 46.0687
82.7644 44.2034
82.7718 42.4596
82.7792 40.8298
82.7860 39.4287
82.7928 38.1143
82.7995 36.8774
82.8063 35.7170
82.8131 34.6249
82.8199 33.6000
82.8266 32.6351
82.8334 31.7289
82.8402 30.8751
82.8470 30.0726
82.8537 29.3156
82.8605 28.6033
82.8673 27.9306
82.8741 27.2966
82.8876 26.1318
82.9011 25.0882
82.9147 24.1504
82.9282 23.3043
82.9418 22.5376
82.9553 21.8399
82.9689 21.2022
82.9824 20.6169
82.9960 20.0778
83.0120 19.4916
83.0280 18.9543
83.0440 18.4589
83.0600 18.0007
83.0761 17.5746
83.0921 17.1774
83.1081 16.8058
83.1241 16.4570
83.1401 16.1286
83.1561 15.8191
83.1881 15.2493
83.2202 14.7362
83.2522 14.2715
83.2793 13.9107
83.3064 13.5761
83.3335 13.2649
83.3606 12.9745
83.3877 12.7029
83.4148 12.4483
83.4419 12.2092
83.4690 11.9841
83.4961 11.7718
83.5232 11.5712
83.5774 11.2016
83.6316 10.8688
83.6858 10.5677
83.7252 10.3661
83.7646 10.1776
83.8040 10.0011
83.8434 9.83541
83.8829 9.67961
83.9223 9.53295
84.0011 9.26401
84.0799 9.02360
84.1588 8.80784
84.2376 8.61359
84.3164 8.43833
84.3756 8.31809
84.4347 8.20668
84.4938 8.10345
84.5529 8.00789
84.6121 7.91953
84.6712 7.83804
84.7303 7.76309
84.7894 7.69446
84.8436 7.63692
84.8978 7.58445
84.9520 7.53699
85.0062 7.49453
85.0604 7.45710
85.1146 7.42478
85.1688 7.39769
85.2230 7.37601
85.2772 7.35996
85.3314 7.34983
85.3856 7.34598
85.4398 7.34884
85.4940 7.35893
85.5482 7.37690
85.6024 7.40350
85.6566 7.43967
85.7108 7.48652
85.7650 7.54538
85.8192 7.61783
85.8734 7.70576
85.9276 7.81150
85.9818 7.93783
86.0360 8.08816
86.0631 8.17361
86.0902 8.26668
86.1394 8.45786
86.1641 8.56533
86.1887 8.68159
86.2134 8.80752
86.2380 8.94394
86.2626 9.09195
86.2873 9.25258
86.3119 9.42724
86.3365 9.61725
86.3612 9.82444
86.3858 10.0505
86.4104 10.2979
86.4351 10.5689
86.4597 10.8667
86.4843 11.1945
86.5114 11.5948
86.5385 12.0429
86.5656 12.5467
86.5927 13.1160
86.6063 13.4288
86.6198 13.7628
86.6334 14.1199
86.6469 14.5026
86.6605 14.9133
86.6740 15.3550
86.6876 15.8313
86.7011 16.3455
86.7147 16.9029
86.7282 17.5083
86.7418 18.1675
86.7553 18.8875
86.7689 19.6761
86.7824 20.5423
86.7960 21.4966
86.8095 22.5511
86.8231 23.7194
86.8366 25.0175
86.8502 26.4632
86.8637 28.0772
86.8773 29.8826
86.8908 31.9055
86.8976 33.0085
86.9044 34.1754
86.9111 35.4121
86.9179 36.7229
86.9253 38.2460
86.9327 39.8671
86.9401 41.5951
86.9475 43.4368
86.9549 45.3994
86.9623 47.4905
86.9697 49.7179
86.9770 52.0898
86.9844 54.6145
86.9918 57.3005
86.9992 60.1567
87.0066 63.1921
87.0140 66.4158
87.0214 69.8370
87.0288 73.4649
87.0362 77.3087
87.0460 82.7895
87.0559 88.6863
87.0657 95.0251
87.0756 101.825
87.0817 106.321
87.0879 111.008
87.0941 115.891
87.1002 120.973
87.1064 126.257
87.1125 131.746
87.1187 137.442
87.1249 143.346
87.1310 149.460
87.1372 155.784
87.1433 162.318
87.1495 169.062
87.1618 183.170
87.1741 198.074
87.1877 215.373
87.2012 233.543
87.2148 252.499
87.2283 272.131
87.2419 292.309
87.2554 312.880
87.2690 333.673
87.2825 354.494
87.3047 388.077
87.3269 420.204
87.3404 438.685
87.3540 456.009
87.3675 471.947
87.3811 486.276
87.3911 495.743
87.4011 504.143
87.4111 511.421
87.4211 517.519
87.4309 522.262
87.4406 525.810
87.4503 528.147
87.4600 529.249
87.4730 528.791
87.4859 526.139
87.4989 521.335
87.5118 514.447
87.5248 505.582
87.5369 495.651
87.5489 484.225
87.5610 471.435
87.5730 457.425
87.5851 442.320
87.5972 426.303
87.6214 392.186
87.6455 356.373
87.6697 320.107
87.6938 284.453
87.7059 267.153
87.7180 250.336
87.7301 234.082
87.7421 218.458
87.7542 203.518
87.7663 189.303
87.7784 175.841
87.7905 163.150
87.8025 151.236
87.8146 140.098
87.8267 129.722
87.8388 120.093
87.8509 111.186
87.8629 102.979
87.8706 98.0966
87.8783 93.4731
87.8860 89.0993
87.8937 84.9708
87.9014 81.0671
87.9091 77.3839
87.9168 73.9112
87.9244 70.6433
87.9321 67.5620
87.9398 64.6618
87.9475 61.9335
87.9552 59.3709
87.9629 56.9584
87.9706 54.6936
87.9782 52.5621
87.9859 50.5615
87.9980 47.6551
88.0101 45.0179
88.0222 42.6234
88.0342 40.4476
88.0463 38.4682
88.0584 36.6651
88.0705 35.0199
88.0826 33.5163
88.0946 32.1393
88.1067 30.8757
88.1188 29.7137
88.1309 28.6427
88.1430 27.6532
88.1550 26.7370
88.1671 25.8866
88.1792 25.0962
88.1913 24.3586
88.2034 23.6695
88.2154 23.0241
88.2275 22.4187
88.2396 21.8494
88.2517 21.3133
88.2638 20.8075
88.2758 20.3294
88.3000 19.4478
88.3242 18.6533
88.3483 17.9334
88.3725 17.2785
88.3966 16.6797
88.4208 16.1303
88.4449 15.6245
88.4691 15.1575
88.4933 14.7250
88.5174 14.3234
88.5416 13.9497
88.5657 13.6011
88.5899 13.2751
88.6141 12.9698
88.6382 12.6832
88.6624 12.4138
88.6865 12.1601
88.7107 11.9209
88.7349 11.6949
88.7590 11.4812
88.8073 11.0866
88.8556 10.7309
88.9040 10.4086
88.9523 10.1155
89.0006 9.84778
89.0489 9.60233
89.0972 9.37656
89.1455 9.16823
89.1939 8.97535
89.2422 8.79626
89.2905 8.62955
89.3388 8.47397
89.3871 8.32840
89.4355 8.19190
89.4838 8.06364
89.5321 7.94292
89.5804 7.82903
89.6287 7.72142
89.6770 7.61956
89.7254 7.52301
89.8220 7.34413
89.9186 7.18189
89.9889 7.07300
90.0592 6.97091
90.1295 6.87497
90.1997 6.78462
90.2700 6.69933
90.3403 6.61864
90.4106 6.54214
90.4809 6.46944
90.6214 6.33422
90.7620 6.21092
90.9025 6.09791
91.0431 5.99387
91.2188 5.87474
91.3945 5.76618
91.5702 5.66685
91.7459 5.57574
91.9392 5.48412
92.1324 5.40084
92.3257 5.32551
92.5190 5.25802
92.7122 5.19855
92.9055 5.14759
93.0022 5.12556
93.0988 5.10603
93.1954 5.08919
93.2920 5.07526
93.4150 5.06215
93.5380 5.05485
93.6610 5.05421
93.7840 5.06134
93.9070 5.07773
94.0300 5.10518
94.0915 5.12375
94.1530 5.14597
94.2145 5.17225
94.2760 5.20303
94.3682 5.25880
94.4604 5.32798
94.5527 5.41317
94.5988 5.46277
94.6449 5.51767
94.6911 5.57844
94.7372 5.64567
94.7833 5.72010
94.8294 5.80255
94.8755 5.89396
94.9217 5.99542
94.9678 6.10822
95.0139 6.23384
95.0622 6.38110
95.1105 6.54669
95.1589 6.73341
95.2072 6.94460
95.2555 7.18440
95.3038 7.45772
95.3280 7.60881
95.3521 7.77068
95.3763 7.94433
95.4004 8.13081
95.4356 8.42783
95.4707 8.75941
95.5081 9.15579
95.5454 9.60549
95.5641 9.85340
95.5827 10.1186
95.6014 10.4029
95.6201 10.7079
95.6387 11.0362
95.6574 11.3901
95.6761 11.7726
95.6947 12.1868
95.7134 12.6371
95.7321 13.1280
95.7507 13.6649
95.7694 14.2540
95.7815 14.6671
95.7936 15.1078
95.8056 15.5790
95.8177 16.0838
95.8298 16.6258
95.8419 17.2089
95.8540 17.8378
95.8660 18.5175
95.8781 19.2539
95.8902 20.0536
95.9023 20.9241
95.9144 21.8737
95.9264 22.9120
95.9385 24.0496
95.9506 25.2985
95.9627 26.6710
95.9742 28.1135
95.9857 29.6964
95.9973 31.4368
96.0088 33.3523
96.0203 35.4619
96.0319 37.7863
96.0434 40.3480
96.0549 43.1713
96.0665 46.2819
96.0780 49.7075
96.0895 53.4772
96.1010 57.6214
96.1126 62.1719
96.1241 67.1614
96.1356 72.6233
96.1472 78.5910
96.1592 85.4226
96.1713 92.8839
96.1834 101.011
96.1955 109.838
96.2076 119.394
96.2196 129.707
96.2317 140.796
96.2438 152.668
96.2559 165.348
96.2680 178.826
96.2800 193.093
96.2921 208.126
96.3042 223.895
96.3163 240.355
96.3284 257.451
96.3404 275.113
96.3547 296.611
96.3690 318.612
96.3975 363.440
96.4217 401.160
96.4459 437.442
96.4700 471.035
96.4821 486.431
96.4942 500.689
96.5059 513.341
96.5177 524.648
96.5294 534.507
96.5412 542.822
96.5534 549.733
96.5656 554.805
96.5778 557.989
96.5900 559.245
96.5941 559.233
96.6073 557.707
96.6205 553.931
96.6338 547.952
96.6470 539.860
96.6657 524.951
96.6845 506.391
96.7025 485.637
96.7204 462.449
96.7351 442.001
96.7498 420.533
96.7792 375.657
96.8152 319.912
96.8331 292.658
96.8511 266.313
96.8691 241.135
96.8870 217.360
96.8960 206.045
96.9050 195.151
96.9140 184.674
96.9230 174.624
96.9316 165.424
96.9401 156.629
96.9487 148.219
96.9573 140.210
96.9659 132.581
96.9744 125.341
96.9830 118.468
96.9916 111.968
97.0002 105.816
97.0087 100.016
97.0173 94.5418
97.0259 89.3952
97.0345 84.5507
97.0430 80.0066
97.0516 75.7438
97.0602 71.7488
97.0692 67.8313
97.0781 64.1822
97.0871 60.7785
97.0961 57.6129
97.1051 54.6638
97.1141 51.9239
97.1231 49.3763
97.1320 47.0082
97.1410 44.8048
97.1500 42.7593
97.1590 40.8580
97.1680 39.0904
97.1770 37.4449
97.1859 35.9158
97.1949 34.4924
97.2039 33.1667
97.2186 31.1878
97.2333 29.4203
97.2480 27.8377
97.2627 26.4166
97.2774 25.1367
97.2921 23.9802
97.3068 22.9319
97.3215 21.9789
97.3362 21.1086
97.3509 20.3118
97.3656 19.5798
97.3803 18.9053
97.3950 18.2821
97.4097 17.7045
97.4244 17.1679
97.4391 16.6684
97.4570 16.1022
97.4750 15.5802
97.4930 15.0974
97.5109 14.6501
97.5289 14.2342
97.5469 13.8471
97.5648 13.4858
97.5828 13.1484
97.6187 12.5363
97.6547 11.9975
97.6906 11.5213
97.7265 11.0988
97.7543 10.8048
97.7821 10.5360
97.8098 10.2902
97.8376 10.0653
97.8654 9.85948
97.8931 9.67141
97.9209 9.49962
97.9487 9.34307
98.0042 9.07160
98.0597 8.85047
98.1152 8.67482
98.1708 8.54111
98.2067 8.47576
98.2426 8.42653
98.2786 8.39313
98.3145 8.37543
98.3504 8.37345
98.3864 8.38737
98.4223 8.41749
98.4582 8.46428
98.4942 8.52839
98.5301 8.61058
98.5660 8.71183
98.6020 8.83334
98.6379 8.97652
98.6738 9.14302
98.7097 9.33483
98.7457 9.55424
98.7979 9.92839
98.8241 10.1426
98.8502 10.3768
98.8894 10.7696
98.9286 11.2180
98.9678 11.7300
99.0070 12.3151
99.0266 12.6388
99.0462 12.9854
99.0658 13.3568
99.0854 13.7551
99.1050 14.1828
99.1246 14.6423
99.1442 15.1368
99.1638 15.6692
99.1785 16.0961
99.1932 16.5485
99.2079 17.0283
99.2226 17.5377
99.2373 18.0792
99.2520 18.6555
99.2667 19.2698
99.2814 19.9253
99.2961 20.6260
99.3108 21.3764
99.3255 22.1812
99.3402 23.0464
99.3549 23.9782
99.3696 24.9842
99.3843 26.0729
99.3990 27.2541
99.4080 28.0269
99.4170 28.8406
99.4259 29.6990
99.4349 30.6058
99.4439 31.5658
99.4529 32.5810
99.4619 33.6571
99.4708 34.7990
99.4798 36.0135
99.4888 37.3040
99.4978 38.6781
99.5068 40.1431
99.5158 41.7085
99.5247 43.3791
99.5337 45.1658
99.5427 47.0787
99.5517 49.1308
99.5607 51.3293
99.5697 53.6890
99.5786 56.2235
99.5876 58.9508
99.5966 61.8804
99.6056 65.0324
99.6146 68.4246
99.6236 72.0807
99.6325 76.0130
99.6415 80.2471
99.6505 84.8061
99.6595 89.7199
99.6685 95.0027
99.6774 100.687
99.6864 106.799
99.6942 112.448
99.7019 118.458
99.7097 124.848
99.7175 131.637
99.7252 138.846
99.7330 146.496
99.7407 154.606
99.7485 163.186
99.7563 172.278
99.7640 181.891
99.7718 192.045
99.7795 202.760
99.7873 214.052
99.7951 225.940
99.8028 238.439
99.8106 251.547
99.8196 267.553
99.8285 284.415
99.8375 302.165
99.8465 320.814
99.8555 340.388
99.8645 360.845
99.8734 382.201
99.8824 404.446
99.8914 427.588
99.9004 451.553
99.9184 501.898
99.9363 555.206
99.9543 610.966
99.9771 684.614
100.000 759.892
100.022 833.570
100.045 905.320
100.067 972.892
100.089 1034.64
100.101 1063.08
100.112 1089.08
100.123 1112.87
100.134 1133.83
100.148 1154.95
100.161 1171.83
100.174 1184.46
100.187 1192.67
100.200 1196.37
100.204 1196.60
100.219 1193.79
100.233 1185.69
100.247 1172.44
100.261 1154.22
100.274 1133.25
100.288 1108.56
100.301 1080.43
100.314 1049.21
100.327 1014.44
100.340 977.508
100.367 898.015
100.394 813.457
100.420 727.311
100.441 661.581
100.462 597.740
100.482 536.718
100.493 507.500
100.503 479.243
100.516 444.016
100.530 410.857
100.543 379.333
100.556 349.951
100.570 322.278
100.583 296.714
100.596 273.009
100.610 251.111
100.623 230.808
100.636 212.325
100.643 203.617
100.650 195.296
100.656 187.352
100.663 179.882
100.670 172.648
100.676 165.753
100.683 159.185
100.690 153.023
100.696 147.066
100.703 141.482
100.710 136.089
100.716 131.036
100.723 126.159
100.730 121.525
100.736 117.122
100.743 113.000
100.750 109.024
100.756 105.248
100.770 98.3040
100.783 91.9898
100.796 86.3304
100.810 81.2136
100.823 76.5821
100.836 72.3540
100.850 68.5452
100.863 65.0556
100.876 61.8995
100.890 58.9952
100.903 56.3562
100.916 53.9333
100.930 51.7032
100.943 49.6304
100.956 47.7277
100.970 45.9501
100.983 44.3101
100.996 42.7704
101.010 41.3430
101.023 40.0066
101.036 38.7527
101.050 37.5651
101.063 36.4551
101.076 35.3999
101.090 34.4100
101.116 32.5777
101.143 30.9321
101.166 29.6289
101.189 28.4331
101.212 27.3230
101.235 26.2983
101.258 25.3416
101.281 24.4541
101.304 23.6252
101.327 22.8493
101.350 22.1187
101.373 21.4354
101.396 20.7923
101.419 20.1861
101.443 19.6115
101.466 19.0706
101.512 18.0733
101.538 17.5407
101.565 17.0388
101.592 16.5650
101.618 16.1187
101.672 15.2926
101.725 14.5502
101.778 13.8773
101.832 13.2673
101.885 12.7100
101.938 12.2012
101.997 11.6932
102.055 11.2290
102.098 10.9062
102.142 10.6040
102.186 10.3194
102.229 10.0523
102.317 9.56300
102.404 9.12757
102.491 8.73940
102.579 8.39329
102.666 8.08525
102.753 7.81261
102.850 7.54802
102.947 7.32271
103.044 7.13644
103.093 7.05825
103.141 6.99037
103.190 6.93317
103.238 6.88717
103.287 6.85299
103.335 6.83142
103.384 6.82339
103.432 6.83007
103.481 6.85285
103.529 6.89337
103.582 6.96090
103.636 7.05533
103.689 7.18086
103.742 7.34170
103.796 7.54417
103.849 7.79458
103.876 7.94082
103.903 8.10262
103.929 8.28143
103.956 8.47811
103.978 8.65520
104.000 8.84627
104.021 9.05335
104.043 9.27780
104.065 9.52115
104.087 9.78511
104.109 10.0716
104.130 10.3827
104.144 10.5872
104.157 10.8009
104.170 11.0277
104.184 11.2648
104.197 11.5166
104.210 11.7803
104.224 12.0585
104.237 12.3521
104.250 12.6647
104.264 12.9928
104.277 13.3426
104.290 13.7102
104.304 14.1028
104.317 14.5163
104.330 14.9553
104.344 15.4219
104.358 15.9687
104.373 16.5510
104.387 17.1807
104.402 17.8536
104.417 18.5839
104.431 19.3675
104.438 19.7861
104.446 20.2219
104.453 20.6760
104.460 21.1429
104.474 22.0660
104.487 23.0584
104.494 23.5899
104.500 24.1442
104.507 24.7227
104.514 25.3175
104.520 25.9483
104.527 26.6078
104.534 27.2980
104.540 28.0095
104.547 28.7661
104.554 29.5473
104.560 30.3790
104.567 31.2389
104.574 32.1556
104.580 33.1194
104.587 34.1332
104.594 35.1841
104.600 36.3073
104.607 37.4911
104.614 38.7395
104.620 40.0365
104.627 41.4259
104.634 42.8935
104.640 44.4443
104.647 46.0586
104.654 47.7912
104.660 49.5961
104.667 51.5345
104.674 53.5553
104.680 55.7267
104.687 58.0266
104.694 60.4632
104.700 63.0052
104.707 65.7385
104.714 68.6350
104.720 71.7044
104.727 74.9071
104.734 78.3507
104.740 81.9990
104.747 85.8638
104.754 89.8941
104.760 94.2244
104.767 98.7378
104.774 103.584
104.780 108.632
104.787 114.048
104.794 119.773
104.800 125.820
104.807 132.108
104.814 138.840
104.820 145.941
104.827 153.425
104.834 161.187
104.840 169.478
104.847 178.198
104.854 187.363
104.860 196.841
104.867 206.934
104.874 217.353
104.880 228.430
104.887 239.846
104.894 251.959
104.900 264.613
104.907 277.818
104.914 291.374
104.920 305.703
104.927 320.609
104.940 351.934
104.954 385.854
104.967 421.866
104.980 460.191
104.994 500.769
105.007 543.835
105.020 588.611
105.034 635.594
105.047 683.865
105.074 784.614
105.100 887.892
105.127 991.323
105.154 1090.91
105.167 1138.24
105.180 1182.81
105.194 1224.51
105.207 1262.88
105.219 1295.04
105.232 1323.45
105.244 1348.30
105.256 1368.94
105.267 1383.95
105.278 1395.43
105.289 1403.29
105.300 1407.47
105.304 1408.07
105.317 1406.63
105.330 1400.04
105.343 1388.38
105.356 1371.82
105.368 1352.17
105.380 1328.66
105.392 1301.54
105.404 1271.34
105.417 1237.28
105.429 1200.41
105.454 1119.72
105.478 1031.84
105.503 940.472
105.541 798.194
105.560 728.933
105.579 662.158
105.591 620.269
105.604 580.230
105.616 541.827
105.628 505.159
105.640 470.301
105.653 437.300
105.665 406.181
105.677 376.949
105.690 349.586
105.702 324.061
105.714 300.327
105.727 278.324
105.739 257.985
105.751 239.234
105.763 221.987
105.776 206.159
105.788 191.551
105.800 178.307
105.813 166.217
105.825 155.195
105.837 145.156
105.850 136.020
105.862 127.709
105.874 120.152
105.887 113.278
105.899 107.026
105.911 101.335
105.923 96.1507
105.936 91.4236
105.948 87.1078
105.960 83.1617
105.973 79.5478
105.985 76.2062
105.997 73.1601
106.010 70.3542
106.022 67.7639
106.034 65.3674
106.047 63.1453
106.059 61.0803
106.071 59.1569
106.083 57.3616
106.096 55.6822
106.108 54.1080
106.120 52.6294
106.133 51.2379
106.145 49.9261
106.170 47.5152
106.193 45.4432
106.217 43.5648
106.240 41.8539
106.264 40.2895
106.287 38.8539
106.311 37.5324
106.334 36.3127
106.357 35.1890
106.381 34.1428
106.404 33.1712
106.428 32.2679
106.451 31.4268
106.475 30.6432
106.498 29.9126
106.522 29.2312
106.545 28.5985
106.577 27.8161
106.608 27.1073
106.639 26.4649
106.671 25.8855
106.702 25.3653
106.733 24.9062
106.765 24.5065
106.796 24.1677
106.815 23.9923
106.834 23.8427
106.853 23.7196
106.872 23.6251
106.891 23.5617
106.910 23.5337
106.929 23.5451
106.948 23.6018
106.967 23.7115
106.986 23.8821
107.005 24.1253
107.024 24.4546
107.034 24.6566
107.043 24.8868
107.053 25.1476
107.062 25.4420
107.072 25.7731
107.081 26.1445
107.091 26.5597
107.100 27.0229
107.113 27.7068
107.125 28.4836
107.137 29.3697
107.150 30.3773
107.162 31.5194
107.174 32.8102
107.186 34.2645
107.199 35.8981
107.211 37.7274
107.223 39.7692
107.236 42.0409
107.248 44.5600
107.260 47.3437
107.273 50.4089
107.285 53.7718
107.297 57.4475
107.305 59.9796
107.313 62.6149
107.321 65.4238
107.329 68.3373
107.336 71.4322
107.344 74.6314
107.352 77.9740
107.360 81.4602
107.372 87.2480
107.384 93.3862
107.397 99.8649
107.409 106.669
107.421 113.779
107.434 121.169
107.458 136.658
107.487 155.819
107.516 175.245
107.541 191.281
107.566 206.394
107.588 218.891
107.599 224.555
107.610 229.765
107.623 234.911
107.635 239.403
107.648 243.357
107.661 246.469
107.679 249.443
107.697 250.617
107.700 250.637
107.703 250.612
107.712 250.230
107.721 249.400
107.739 246.409
107.754 242.741
107.769 238.015
107.783 232.430
107.798 225.979
107.813 218.014
107.829 209.308
107.844 200.684
107.858 191.616
107.887 172.661
107.916 153.247
107.945 134.146
107.958 125.706
107.971 117.579
107.984 109.683
107.997 102.173
108.011 94.9631
108.024 88.1828
108.037 81.7907
108.050 75.7953
108.064 69.6249
108.072 66.7419
108.079 63.9779
108.086 61.2955
108.093 58.7665
108.101 56.3512
108.108 54.0475
108.115 51.8231
108.122 49.7361
108.129 47.7525
108.137 45.8692
108.144 44.0589
108.151 42.3679
108.158 40.7674
108.166 39.2538
108.173 37.8047
108.180 36.4560
108.187 35.1669
108.195 33.9692
108.202 32.8262
108.209 31.7657
108.216 30.7683
108.223 29.8310
108.231 28.9386
108.238 28.1126
108.245 27.3374
108.252 26.6101
108.260 25.9190
108.267 25.2802
108.274 24.6814
108.281 24.1202
108.289 23.5874
108.296 23.0951
108.310 22.2017
108.325 21.4119
108.339 20.7229
108.354 20.1127
108.368 19.5790
108.382 19.1046
108.397 18.6881
108.414 18.2542
108.431 17.8767
108.448 17.5472
108.465 17.2586
108.482 17.0052
108.499 16.7819
108.517 16.5850
108.534 16.4119
108.568 16.1222
108.602 15.8981
108.636 15.7269
108.670 15.6019
108.717 15.4944
108.765 15.4553
108.812 15.4792
108.859 15.5637
108.907 15.7084
108.954 15.9149
109.001 16.1863
109.049 16.5276
109.075 16.7501
109.101 16.9978
109.127 17.2723
109.154 17.5756
109.180 17.9098
109.206 18.2776
109.233 18.6818
109.259 19.1239
109.285 19.6111
109.311 20.1461
109.338 20.7340
109.364 21.3780
109.390 22.0898
109.417 22.8749
109.443 23.7426
109.469 24.7001
109.498 25.8842
109.527 27.2148
109.556 28.7226
109.570 29.5561
109.585 30.4412
109.599 31.3961
109.614 32.4139
109.628 33.5165
109.643 34.6969
109.657 35.9816
109.671 37.3639
109.686 38.8763
109.700 40.5128
109.715 42.3136
109.729 44.2738
109.744 46.4439
109.758 48.8208
109.773 51.4684
109.787 54.3855
109.802 57.6536
109.816 61.2740
109.830 65.3502
109.838 67.5535
109.845 69.8863
109.852 72.3928
109.859 75.0136
109.867 77.7918
109.874 80.7377
109.881 83.9069
109.888 87.2243
109.895 90.7439
109.903 94.4786
109.910 98.4983
109.917 102.707
109.924 107.173
109.932 111.911
109.939 117.009
109.946 122.343
109.953 128.080
109.961 134.081
109.968 140.529
109.975 147.268
109.982 154.402
109.989 161.951
109.997 170.049
110.004 178.493
110.011 187.412
110.018 196.827
110.026 206.899
110.033 217.374
110.040 228.405
110.047 240.013
110.055 252.391
110.062 265.220
110.069 278.682
110.076 292.796
110.083 307.788
110.091 323.263
110.098 339.436
110.105 356.319
110.112 374.175
110.120 392.522
110.134 431.437
110.148 473.639
110.163 518.538
110.173 553.462
110.184 589.583
110.194 627.170
110.205 666.156
110.226 747.970
110.247 834.150
110.276 958.166
110.305 1084.02
110.334 1207.57
110.348 1266.69
110.363 1323.31
110.375 1369.93
110.388 1413.74
110.400 1454.35
110.412 1491.07
110.430 1536.89
110.448 1573.77
110.461 1594.60
110.474 1610.03
110.487 1619.87
110.500 1624.02
110.504 1624.14
110.517 1620.80
110.530 1611.78
110.543 1597.18
110.556 1577.18
110.569 1553.07
110.581 1524.44
110.594 1491.58
110.606 1454.82
110.619 1413.20
110.632 1368.61
110.657 1271.38
110.683 1166.46
110.709 1057.46
110.748 888.611
110.768 806.951
110.788 728.594
110.801 679.726
110.813 633.157
110.826 588.645
110.839 546.297
110.852 506.187
110.865 468.360
110.877 432.831
110.890 399.590
110.903 368.372
110.916 339.610
110.929 312.984
110.942 288.413
110.954 265.804
110.967 245.059
110.980 226.070
110.993 208.729
110.999 200.518
111.006 192.808
111.012 185.453
111.018 178.442
111.025 171.760
111.031 165.394
111.038 159.331
111.044 153.558
111.050 148.063
111.057 142.833
111.070 133.122
111.082 124.333
111.095 116.380
111.108 109.183
111.121 102.668
111.134 96.7656
111.146 91.4139
111.159 86.5557
111.172 82.1391
111.185 78.1175
111.198 74.4488
111.211 71.0702
111.223 68.0003
111.236 65.1816
111.249 62.5875
111.262 60.1943
111.275 57.9811
111.287 55.9293
111.300 54.0226
111.313 52.2331
111.326 50.5756
111.339 49.0246
111.351 47.5700
111.364 46.2031
111.377 44.9160
111.403 42.5543
111.425 40.7066
111.447 39.0262
111.469 37.4844
111.491 36.0645
111.513 34.7468
111.535 33.5312
111.558 32.4014
111.580 31.3488
111.602 30.3615
111.624 29.4419
111.646 28.5796
111.668 27.7695
111.690 27.0072
111.712 26.2888
111.734 25.6107
111.757 24.9697
111.782 24.2672
111.808 23.6096
111.834 22.9882
111.859 22.4047
111.910 21.3310
111.962 20.3710
112.013 19.5053
112.064 18.7243
112.115 18.0143
112.167 17.3691
112.223 16.7282
112.278 16.1466
112.330 15.6573
112.381 15.2075
112.432 14.7917
112.483 14.4081
112.535 14.0523
112.586 13.7233
112.637 13.4182
112.688 13.1351
112.740 12.8719
112.791 12.6283
112.842 12.4022
112.893 12.1933
112.945 12.0000
112.996 11.8223
113.047 11.6592
113.098 11.5102
113.182 11.2959
113.266 11.1181
113.350 10.9765
113.434 10.8725
113.517 10.8078
113.601 10.7861
113.643 10.7929
113.685 10.8124
113.727 10.8456
113.769 10.8936
113.820 10.9747
113.871 11.0827
113.923 11.2217
113.974 11.3956
114.025 11.6104
114.076 11.8721
114.128 12.1896
114.153 12.3724
114.179 12.5735
114.223 12.9698
114.245 13.1944
114.267 13.4376
114.290 13.7034
114.312 13.9916
114.334 14.3061
114.356 14.6496
114.378 15.0274
114.400 15.4401
114.422 15.8963
114.445 16.3973
114.467 16.9547
114.489 17.5714
114.511 18.2597
114.533 19.0318
114.552 19.7574
114.570 20.5634
114.583 21.1765
114.596 21.8340
114.609 22.5462
114.622 23.3193
114.634 24.1605
114.647 25.0776
114.660 26.0799
114.673 27.1775
114.686 28.3819
114.698 29.7061
114.711 31.1645
114.724 32.7734
114.737 34.5507
114.750 36.5164
114.762 38.6924
114.775 41.1032
114.786 43.4041
114.797 45.9202
114.808 48.6714
114.819 51.6509
114.831 54.9355
114.842 58.4895
114.853 62.4027
114.864 66.6304
114.875 71.2768
114.886 76.3334
114.897 81.8291
114.908 87.7373
114.919 94.1950
114.930 101.115
114.941 108.651
114.952 116.695
114.965 126.894
114.978 137.868
114.991 149.725
115.003 162.495
115.016 176.199
115.029 190.853
115.042 206.461
115.055 223.020
115.067 239.814
115.079 257.301
115.091 275.734
115.104 294.767
115.116 314.655
115.128 335.005
115.153 377.230
115.178 422.977
115.204 469.100
115.229 514.307
115.255 557.185
115.268 577.294
115.281 596.273
115.293 613.948
115.306 630.148
115.318 644.072
115.330 656.294
115.343 666.904
115.355 675.631
115.367 682.392
115.378 687.252
115.390 690.251
115.402 691.313
115.404 691.302
115.411 690.861
115.418 689.804
115.431 685.863
115.444 679.526
115.458 670.871
115.472 659.640
115.485 646.301
115.499 630.820
115.513 613.601
115.527 593.873
115.541 572.585
115.556 549.985
115.570 526.326
115.599 476.837
115.627 426.075
115.647 391.654
115.666 357.964
115.686 325.427
115.705 294.390
115.720 272.742
115.734 252.130
115.748 232.612
115.762 214.229
115.777 197.001
115.791 180.934
115.805 166.018
115.820 152.323
115.834 139.623
115.841 133.630
115.848 127.975
115.855 122.494
115.862 117.331
115.870 112.335
115.877 107.637
115.884 103.097
115.891 98.8331
115.898 94.7189
115.905 90.8605
115.913 87.1416
115.920 83.6579
115.927 80.3037
115.934 77.1646
115.941 74.2675
115.948 71.5541
115.954 68.9750
115.961 66.5244
115.968 64.1631
115.975 61.9536
115.982 59.8554
115.989 57.8630
116.002 54.1495
116.016 50.8275
116.030 47.8112
116.043 45.1106
116.057 42.6548
116.070 40.4515
116.084 38.4426
116.098 36.6345
116.111 34.9800
116.125 33.4848
116.139 32.1200
116.152 30.8712
116.167 29.6694
116.181 28.5687
116.195 27.5579
116.209 26.6267
116.224 25.7667
116.238 24.9700
116.252 24.2301
116.267 23.5411
116.281 22.8979
116.295 22.2962
116.310 21.7320
116.324 21.2018
116.352 20.2319
116.381 19.3663
116.410 18.5890
116.438 17.8874
116.467 17.2511
116.495 16.6717
116.524 16.1423
116.553 15.6570
116.581 15.2109
116.610 14.8012
116.638 14.4215
116.667 14.0701
116.696 13.7444
116.724 13.4421
116.781 12.8994
116.838 12.4293
116.872 12.1803
116.906 11.9508
116.974 11.5439
117.041 11.1982
117.109 10.9053
117.176 10.6588
117.244 10.4537
117.312 10.2861
117.379 10.1533
117.462 10.0339
117.546 9.96077
117.629 9.93238
117.712 9.94805
117.795 10.0082
117.878 10.1139
117.961 10.2675
118.044 10.4718
118.117 10.6957
118.190 10.9653
118.263 11.2847
118.336 11.6587
118.408 12.0945
118.481 12.5990
118.518 12.8797
118.554 13.1810
118.590 13.5043
118.627 13.8500
118.684 14.4460
118.741 15.1110
118.798 15.8532
118.827 16.2562
118.855 16.6822
118.884 17.1326
118.913 17.6090
118.941 18.1131
118.970 18.6467
118.998 19.2118
119.027 19.8105
119.056 20.4452
119.084 21.1160
119.126 22.1696
119.167 23.3201
119.209 24.5785
119.251 25.9573
119.292 27.4708
119.334 29.1357
119.355 30.0307
119.375 30.9711
119.396 31.9597
119.417 32.9945
119.445 34.5141
119.474 36.1471
119.503 37.9044
119.531 39.7983
119.560 41.8427
119.588 44.0534
119.617 46.4484
119.646 49.0386
119.674 51.8656
119.703 54.9477
119.731 58.3161
119.760 62.0072
119.789 66.0636
119.803 68.2442
119.817 70.5357
119.831 72.9458
119.846 75.4830
119.860 78.1566
119.874 80.9566
119.889 83.9336
119.903 87.0807
119.917 90.4116
119.931 93.9415
119.946 97.6869
119.960 101.667
119.974 105.901
119.989 110.414
120.003 115.230
120.017 120.378
120.032 125.891
120.046 131.804
120.060 138.156
120.074 144.994
120.089 152.366
120.103 160.330
120.115 167.762
120.128 175.663
120.140 184.212
120.152 193.323
120.165 203.205
120.177 213.761
120.190 225.233
120.202 237.511
120.214 250.878
120.227 265.207
120.239 280.827
120.251 297.588
120.264 315.874
120.276 335.507
120.288 356.750
120.301 379.733
120.315 408.822
120.329 440.670
120.343 475.509
120.358 513.580
120.372 555.125
120.386 600.391
120.401 649.619
120.415 703.048
120.429 760.901
120.444 823.388
120.458 890.693
120.472 962.973
120.486 1040.35
120.501 1122.90
120.515 1210.65
120.529 1302.91
120.544 1400.88
120.558 1503.76
120.572 1611.34
120.586 1723.28
120.601 1839.18
120.615 1958.58
120.644 2204.58
120.711 2799.76
120.740 3038.54
120.768 3257.66
120.789 3399.94
120.810 3524.47
120.831 3628.54
120.852 3709.85
120.864 3746.20
120.876 3773.62
120.888 3792.23
120.900 3801.90
120.907 3803.38
120.918 3799.34
120.930 3787.36
120.941 3767.53
120.953 3740.28
120.975 3663.17
120.998 3558.97
121.016 3459.40
121.034 3346.97
121.052 3222.98
121.069 3089.35
121.096 2878.48
121.122 2658.11
121.174 2210.11
121.200 1992.72
121.227 1785.18
121.240 1686.08
121.253 1590.47
121.266 1498.60
121.279 1410.63
121.292 1326.06
121.305 1246.25
121.318 1170.58
121.332 1099.03
121.345 1031.58
121.358 968.143
121.371 908.626
121.384 852.908
121.397 802.774
121.409 756.253
121.422 712.793
121.434 672.248
121.447 634.467
121.459 599.297
121.472 566.585
121.484 536.182
121.497 507.938
121.509 481.710
121.522 457.358
121.534 434.750
121.547 413.757
121.559 394.260
121.572 376.144
121.584 359.303
121.597 342.792
121.610 327.592
121.623 313.476
121.637 300.351
121.650 288.134
121.663 276.747
121.676 266.121
121.689 256.189
121.702 246.827
121.715 238.121
121.728 229.950
121.741 222.270
121.755 215.041
121.768 208.227
121.781 201.795
121.794 195.715
121.811 188.433
121.827 181.631
121.844 175.263
121.861 169.325
121.877 163.712
121.894 158.428
121.911 153.447
121.927 148.772
121.954 141.874
121.980 135.559
122.006 129.737
122.032 124.354
122.058 119.346
122.085 114.710
122.111 110.392
122.137 106.361
122.163 102.577
122.190 99.0459
122.216 95.7311
122.242 92.6144
122.268 89.6796
122.294 86.9119
122.321 84.2981
122.347 81.8264
122.373 79.4775
122.399 77.2595
122.452 73.1544
122.504 69.4411
122.556 66.0688
122.609 62.9893
122.661 60.1785
122.714 57.5997
122.766 55.2267
122.809 53.4214
122.852 51.7281
122.895 50.1372
122.938 48.6401
122.981 47.2292
123.024 45.8974
123.066 44.6387
123.109 43.4500
123.152 42.3208
123.195 41.2494
123.238 40.2317
123.281 39.2639
123.367 37.4649
123.452 35.8303
123.505 34.9002
123.557 34.0210
123.610 33.1857
123.662 32.3941
123.715 31.6402
123.767 30.9242
123.872 29.5917
123.977 28.3763
124.082 27.2659
124.186 26.2457
124.291 25.3073
124.363 24.7086
124.434 24.1408
124.506 23.6016
124.577 23.0889
124.720 22.1360
124.863 21.2692
125.006 20.4757
125.149 19.7468
125.292 19.0748
125.435 18.4537
125.536 18.0425
125.637 17.6521
125.738 17.2807
125.839 16.9269
126.040 16.2673
126.242 15.6644
126.444 15.1106
126.646 14.5996
126.848 14.1262
127.049 13.6859
127.212 13.3523
127.375 13.0361
127.538 12.7360
127.700 12.4505
127.863 12.1777
128.026 11.9164
128.188 11.6659
128.351 11.4256
128.514 11.1945
128.676 10.9719
129.002 10.5499
129.327 10.1548
129.652 9.78296
129.941 9.46932
130.249 9.15130
130.556 8.84717
130.863 8.55542
131.171 8.27497
131.478 8.00476
131.632 7.87327
131.785 7.74432
131.939 7.61783
132.092 7.49406
132.246 7.37297
132.400 7.25473
132.580 7.11949
132.761 6.98909
132.942 6.86414
133.123 6.74582
133.303 6.63550
133.394 6.58400
133.484 6.53545
133.575 6.49017
133.665 6.44882
133.755 6.41217
133.846 6.38129
133.909 6.36380
133.972 6.35047
134.036 6.34219
134.099 6.34019
134.162 6.34630
134.225 6.36349
134.257 6.37777
134.289 6.39700
134.320 6.42260
134.352 6.45645
134.374 6.48715
134.397 6.52466
134.420 6.57057
134.442 6.62685
134.465 6.69596
134.487 6.78089
134.510 6.88528
134.533 7.01346
134.544 7.08805
134.555 7.17058
134.566 7.26181
134.578 7.36258
134.589 7.47376
134.600 7.59629
134.612 7.73114
134.623 7.87933
134.634 8.04194
134.646 8.22007
134.657 8.41486
134.668 8.62747
134.679 8.85905
134.691 9.11080
134.702 9.38386
134.713 9.67666
134.725 9.99552
134.736 10.3390
134.747 10.7079
134.758 11.1034
134.770 11.5260
134.781 11.9764
134.792 12.4551
134.804 12.9623
134.815 13.4983
134.826 14.0628
134.838 14.6556
134.849 15.2760
134.871 16.5958
134.894 18.0120
134.919 19.6654
134.944 21.3828
134.993 24.8957
135.021 26.7607
135.048 28.5005
135.073 29.9415
135.097 31.1793
135.110 31.7154
135.122 32.1829
135.135 32.5822
135.147 32.9076
135.162 33.2020
135.177 33.3869
135.190 33.4581
135.209 33.4020
135.226 33.1934
135.243 32.8413
135.257 32.4500
135.271 31.9711
135.285 31.4102
135.299 30.7785
135.313 30.0741
135.327 29.3091
135.355 27.6363
135.391 25.3060
135.426 22.8847
135.459 20.6690
135.476 19.5994
135.492 18.5671
135.509 17.5793
135.525 16.6419
135.542 15.7593
135.558 14.9348
135.579 13.9984
135.589 13.5651
135.599 13.1589
135.609 12.7717
135.619 12.4107
135.629 12.0684
135.640 11.7511
135.650 11.4518
135.660 11.1733
135.670 10.9148
135.680 10.6778
135.690 10.4569
135.701 10.2556
135.711 10.0691
135.721 9.90034
135.741 9.60425
135.762 9.36379
135.782 9.17119
135.802 9.02067
135.823 8.90644
135.843 8.82480
135.863 8.77085
135.883 8.74088
135.904 8.73170
135.924 8.74066
135.965 8.80408
136.005 8.91739
136.046 9.07181
136.102 9.34269
136.158 9.67624
136.214 10.0725
136.269 10.5346
136.297 10.7936
136.325 11.0711
136.353 11.3705
136.381 11.6911
136.409 12.0369
136.437 12.4074
136.465 12.8057
136.493 13.2344
136.529 13.8298
136.564 14.4856
136.600 15.2092
136.635 16.0073
136.653 16.4394
136.671 16.8950
136.689 17.3755
136.706 17.8800
136.724 18.4162
136.742 18.9834
136.760 19.5843
136.777 20.2178
136.805 21.3010
136.833 22.4915
136.847 23.1359
136.861 23.8149
136.875 24.5314
136.889 25.2827
136.903 26.0832
136.917 26.9313
136.931 27.8314
136.945 28.7814
136.959 29.8002
136.973 30.8874
136.987 32.0499
137.001 33.2865
137.015 34.6237
137.029 36.0630
137.043 37.6159
137.057 39.2829
137.071 41.1025
137.085 43.0797
137.099 45.2332
137.113 47.5665
137.127 50.1369
137.141 52.9547
137.155 56.0497
137.169 59.4297
137.183 63.1799
137.197 67.2868
137.211 71.8543
137.225 76.8657
137.234 80.6315
137.244 84.6240
137.253 88.9467
137.263 93.5298
137.272 98.4913
137.282 103.750
137.291 109.379
137.301 115.402
137.310 121.913
137.320 128.803
137.329 136.163
137.339 144.020
137.349 152.491
137.358 161.429
137.368 170.947
137.377 181.070
137.391 197.152
137.405 214.565
137.419 233.641
137.433 254.182
137.447 276.551
137.461 300.488
137.475 326.383
137.489 353.900
137.503 383.452
137.517 414.844
137.531 448.055
137.545 482.782
137.559 519.456
137.573 557.736
137.587 597.499
137.600 638.294
137.621 700.162
137.641 763.486
137.682 892.176
137.710 979.329
137.738 1061.76
137.752 1100.57
137.766 1136.96
137.780 1171.10
137.793 1202.17
137.807 1229.01
137.820 1252.58
137.833 1273.04
137.846 1289.90
137.860 1303.33
137.873 1312.93
137.887 1318.61
137.900 1320.33
137.902 1320.24
137.909 1319.34
137.915 1317.54
137.928 1311.21
137.941 1301.31
137.954 1287.94
137.972 1263.47
137.990 1233.05
138.007 1200.55
138.023 1164.25
138.045 1109.01
138.068 1049.17
138.134 860.944
138.150 814.243
138.167 768.964
138.183 725.665
138.200 685.099
138.216 647.240
138.232 612.964
138.241 597.011
138.249 582.227
138.257 568.453
138.265 555.723
138.274 543.936
138.282 533.404
138.290 524.007
138.298 515.767
138.307 508.628
138.315 502.778
138.323 498.140
138.331 494.727
138.337 493.010
138.347 491.635
138.357 492.024
138.366 494.156
138.376 498.028
138.383 501.775
138.390 506.295
138.396 511.631
138.403 517.776
138.411 526.497
138.419 536.302
138.428 547.407
138.436 559.522
138.444 572.914
138.452 587.230
138.461 602.593
138.469 618.965
138.477 636.525
138.485 654.808
138.502 693.970
138.518 736.524
138.535 781.499
138.551 828.942
138.568 877.735
138.600 978.185
138.633 1078.15
138.650 1126.20
138.666 1171.80
138.683 1214.89
138.699 1254.34
138.716 1289.87
138.732 1320.98
138.745 1341.91
138.758 1359.58
138.770 1374.13
138.783 1385.21
138.800 1394.69
138.809 1397.10
138.822 1397.68
138.836 1394.17
138.850 1386.66
138.864 1375.28
138.881 1355.77
138.898 1330.98
138.912 1307.88
138.926 1281.98
138.939 1253.55
138.953 1222.90
138.969 1182.69
138.986 1140.44
139.019 1051.18
139.053 959.809
139.086 869.880
139.113 799.165
139.140 732.918
139.155 698.027
139.171 664.984
139.186 633.594
139.201 603.865
139.217 572.893
139.234 544.031
139.246 524.311
139.266 493.006
139.283 468.772
139.300 446.175
139.314 428.252
139.328 411.191
139.347 389.974
139.365 369.927
139.387 347.296
139.409 325.890
139.432 305.446
139.454 286.019
139.475 268.172
139.496 251.135
139.517 234.808
139.538 219.195
139.554 207.773
139.570 196.788
139.587 186.251
139.603 176.175
139.619 166.568
139.635 157.439
139.651 148.792
139.667 140.629
139.678 135.282
139.689 130.162
139.700 125.267
139.711 120.635
139.722 116.178
139.734 111.934
139.745 107.899
139.756 104.100
139.767 100.461
139.778 97.0127
139.789 93.7470
139.800 90.6840
139.811 87.7606
139.822 85.0222
139.833 82.4115
139.844 79.9679
139.855 77.7416
139.865 75.6347
139.876 73.6409
139.886 71.7712
139.897 69.9839
139.908 68.2914
139.918 66.6882
139.929 65.1825
139.939 63.7407
139.950 62.3723
139.961 61.0728
139.971 59.8488
139.992 57.5636
140.013 55.4861
140.034 53.5808
140.056 51.8423
140.077 50.2408
140.098 48.7591
140.119 47.3760
140.140 46.0919
140.161 44.8892
140.182 43.7590
140.214 42.1564
140.247 40.6821
140.279 39.3182
140.311 38.0506
140.343 36.8677
140.375 35.7602
140.408 34.7203
140.440 33.7441
140.484 32.4861
140.528 31.3203
140.573 30.2365
140.617 29.2280
140.661 28.2830
140.705 27.3974
140.750 26.5659
140.794 25.7852
140.838 25.0479
140.883 24.3521
140.927 23.6945
140.971 23.0739
141.015 22.4849
141.060 21.9281
141.104 21.3990
141.148 20.8984
141.212 20.2150
141.277 19.5830
141.321 19.1766
141.365 18.7925
141.410 18.4302
141.454 18.0903
141.498 17.7709
141.543 17.4730
141.587 17.1968
141.631 16.9434
141.675 16.7123
141.720 16.5052
141.764 16.3234
141.808 16.1689
141.852 16.0431
141.897 15.9491
141.941 15.8897
141.985 15.8690
142.029 15.8917
142.074 15.9637
142.118 16.0921
142.162 16.2851
142.207 16.5545
142.251 16.9133
142.295 17.3789
142.317 17.6576
142.339 17.9716
142.376 18.5739
142.412 19.2996
142.430 19.7172
142.448 20.1762
142.466 20.6810
142.484 21.2369
142.502 21.8498
142.520 22.5264
142.539 23.2747
142.557 24.1040
142.575 25.0252
142.584 25.5270
142.593 26.0511
142.602 26.6110
142.611 27.1966
142.620 27.8232
142.629 28.4794
142.639 29.2625
142.649 30.0989
142.659 30.9930
142.669 31.9400
142.679 32.9641
142.689 34.0509
142.700 35.2284
142.710 36.4803
142.716 37.3569
142.723 38.2621
142.729 39.2261
142.736 40.2222
142.742 41.2836
142.749 42.3810
142.755 43.5511
142.762 44.7616
142.769 46.0529
142.775 47.3895
142.782 48.8160
142.788 50.2931
142.795 51.8702
142.801 53.5037
142.808 55.2213
142.814 57.0274
142.820 58.6580
142.825 60.3300
142.831 62.1073
142.836 63.9297
142.842 65.8670
142.848 67.8536
142.853 69.9267
142.859 72.0902
142.864 74.3898
142.870 76.7473
142.875 79.2071
142.881 81.7733
142.886 84.5000
142.892 87.2942
142.897 90.2083
142.903 93.2468
142.908 96.4735
142.914 99.7780
142.919 103.286
142.925 106.877
142.931 110.687
142.936 114.586
142.942 118.646
142.947 122.872
142.953 127.351
142.958 131.929
142.964 136.692
142.969 141.643
142.975 146.885
142.980 152.237
142.991 163.568
143.002 175.891
143.013 189.158
143.025 203.416
143.036 218.571
143.047 234.946
143.058 252.288
143.069 270.956
143.080 290.649
143.091 311.762
143.102 334.150
143.113 357.837
143.124 382.612
143.135 408.934
143.146 436.588
143.157 465.570
143.168 495.586
143.179 527.157
143.191 559.984
143.202 594.019
143.213 628.884
143.235 702.070
143.257 778.858
143.283 873.348
143.309 969.884
143.353 1131.42
143.376 1208.88
143.398 1281.53
143.420 1348.47
143.442 1407.66
143.466 1461.12
143.477 1483.65
143.489 1503.17
143.502 1520.67
143.515 1534.39
143.527 1544.25
143.540 1550.16
143.545 1551.34
143.560 1551.43
143.575 1545.96
143.590 1535.04
143.605 1518.82
143.618 1500.94
143.630 1479.68
143.643 1455.12
143.656 1427.45
143.681 1363.74
143.707 1290.58
143.732 1210.15
143.757 1124.73
143.806 955.280
143.830 871.144
143.854 789.724
143.880 707.786
143.893 668.790
143.905 631.145
143.918 594.932
143.931 560.219
143.943 527.053
143.956 495.466
143.974 454.778
143.982 435.558
143.991 417.290
144.000 399.543
144.008 382.716
144.017 366.407
144.025 350.978
144.034 336.057
144.043 321.811
144.052 308.222
144.060 295.418
144.069 283.081
144.077 271.477
144.086 260.315
144.095 249.831
144.108 235.196
144.120 221.761
144.133 209.341
144.146 197.871
144.158 187.287
144.171 177.526
144.184 168.529
144.196 160.238
144.209 152.599
144.222 145.559
144.235 139.069
144.247 133.085
144.260 127.563
144.273 122.463
144.285 117.749
144.298 113.386
144.311 109.314
144.324 105.566
144.336 102.084
144.349 98.8435
144.362 95.8233
144.374 93.0034
144.387 90.3662
144.400 87.8955
144.412 85.5766
144.425 83.3964
144.438 81.3431
144.451 79.4060
144.463 77.5753
144.476 75.8425
144.501 72.6397
144.527 69.7328
144.552 67.1006
144.578 64.6951
144.603 62.4867
144.629 60.4432
144.654 58.5602
144.679 56.8121
144.705 55.1843
144.730 53.6587
144.756 52.2364
144.781 50.9019
144.806 49.6473
144.832 48.4655
144.857 47.3502
144.883 46.2959
144.908 45.2976
144.934 44.3475
144.959 43.4489
145.010 41.7811
145.061 40.2661
145.111 38.8839
145.162 37.6152
145.213 36.4511
145.264 35.3771
145.315 34.3832
145.352 33.7047
145.389 33.0628
145.439 32.2295
145.490 31.4529
145.541 30.7245
145.592 30.0425
145.643 29.4004
145.694 28.7970
145.744 28.2280
145.795 27.6906
145.846 27.1814
145.897 26.7003
145.948 26.2434
145.999 25.8107
146.050 25.3992
146.100 25.0089
146.151 24.6380
146.202 24.2853
146.294 23.6874
146.387 23.1424
146.479 22.6468
146.525 22.4169
146.572 22.1988
146.618 21.9920
146.664 21.7974
146.710 21.6148
146.756 21.4445
146.803 21.2867
146.849 21.1427
146.895 21.0130
146.941 20.8986
146.992 20.7923
147.043 20.7090
147.094 20.6518
147.145 20.6251
147.170 20.6249
147.196 20.6346
147.221 20.6553
147.246 20.6883
147.272 20.7350
147.297 20.7973
147.323 20.8774
147.348 20.9780
147.366 21.0661
147.385 21.1684
147.403 21.2869
147.422 21.4238
147.440 21.5817
147.459 21.7639
147.477 21.9740
147.496 22.2154
147.514 22.4960
147.533 22.8212
147.551 23.1987
147.570 23.6378
147.588 24.1495
147.598 24.4382
147.607 24.7468
147.616 25.0842
147.625 25.4451
147.635 25.8354
147.644 26.2575
147.655 26.8392
147.667 27.4757
147.678 28.1842
147.690 28.9593
147.702 29.8219
147.713 30.7649
147.725 31.8134
147.736 32.9582
147.748 34.2293
147.759 35.6151
147.771 37.1506
147.782 38.8211
147.794 40.6678
147.805 42.6716
147.817 44.8806
147.829 47.2703
147.838 49.3578
147.847 51.5670
147.856 53.9533
147.866 56.4728
147.875 59.1876
147.884 62.0467
147.893 65.1193
147.903 68.3464
147.912 71.8048
147.921 75.4268
147.930 79.2970
147.940 83.3378
147.949 87.6424
147.958 92.1224
147.967 96.8270
147.976 101.759
147.989 109.003
148.002 116.634
148.015 124.704
148.027 133.210
148.040 142.142
148.053 151.488
148.065 161.228
148.078 171.340
148.101 190.673
148.124 210.836
148.148 231.636
148.171 252.743
148.196 275.858
148.221 298.338
148.247 319.599
148.272 338.976
148.294 353.924
148.316 366.741
148.329 373.048
148.341 378.452
148.361 384.959
148.380 389.274
148.400 391.362
148.404 391.465
148.415 391.278
148.426 390.307
148.437 388.561
148.448 386.077
148.469 379.468
148.490 370.495
148.511 359.101
148.532 345.695
148.553 330.496
148.574 313.970
148.607 286.379
148.640 257.556
148.682 220.058
148.703 201.838
148.724 184.377
148.745 167.685
148.766 152.051
148.777 144.598
148.788 137.424
148.798 130.537
148.809 124.000
148.819 117.692
148.830 111.677
148.841 105.953
148.851 100.568
148.862 95.4150
148.872 90.5857
148.883 85.9818
148.893 81.6830
148.904 77.5990
148.914 73.7632
148.925 70.1663
148.936 66.8290
148.946 63.6777
148.957 60.7618
148.967 58.0154
148.978 55.4801
148.988 53.0973
148.999 50.8817
149.010 48.8235
149.020 46.9301
149.031 45.1560
149.041 43.5110
149.052 41.9860
149.062 40.5857
149.073 39.2754
149.084 38.0612
149.094 36.9361
149.105 35.9026
149.115 34.9349
149.126 34.0453
149.136 33.2114
149.147 32.4438
149.157 31.7559
149.167 31.1135
149.177 30.5132
149.187 29.9515
149.197 29.4253
149.207 28.9319
149.218 28.4686
149.228 28.0372
149.238 27.6268
149.248 27.2399
149.268 26.5293
149.288 25.8922
149.308 25.3204
149.328 24.7991
149.349 24.3238
149.369 23.8882
149.389 23.4889
149.409 23.1175
149.429 22.7724
149.450 22.4506
149.470 22.1509
149.491 21.8545
149.512 21.5776
149.533 21.3156
149.554 21.0695
149.575 20.8355
149.597 20.6147
149.639 20.2051
149.681 19.8321
149.723 19.4910
149.766 19.1774
149.808 18.8885
149.850 18.6198
149.892 18.3695
149.935 18.1356
149.977 17.9167
150.019 17.7103
150.061 17.5160
150.104 17.3317
150.146 17.1574
150.188 16.9914
150.231 16.8332
150.315 16.5383
150.400 16.2677
150.484 16.0178
150.549 15.8367
150.615 15.6654
150.680 15.5024
150.745 15.3473
150.811 15.1989
150.876 15.0570
151.007 14.7897
151.137 14.5414
151.268 14.3094
151.399 14.0911
151.529 13.8849
151.637 13.7228
151.745 13.5670
151.852 13.4169
151.960 13.2717
152.067 13.1311
152.175 12.9947
152.283 12.8620
152.390 12.7328
152.559 12.5357
152.728 12.3452
152.897 12.1607
152.982 12.0704
153.066 11.9814
153.151 11.8936
153.236 11.8070
153.320 11.7215
153.405 11.6373
153.489 11.5542
153.574 11.4725
153.658 11.3921
153.743 11.3132
153.827 11.2359
153.912 11.1606
153.996 11.0875
154.081 11.0172
154.166 10.9499
154.250 10.8867
154.335 10.8283
154.377 10.8013
154.419 10.7760
154.473 10.7466
154.527 10.7209
154.580 10.6995
154.634 10.6831
154.688 10.6727
154.742 10.6695
154.796 10.6748
154.849 10.6906
154.892 10.7116
154.934 10.7418
154.976 10.7827
155.019 10.8363
155.061 10.9050
155.103 10.9920
155.124 11.0437
155.146 11.1012
155.167 11.1654
155.188 11.2372
155.209 11.3177
155.230 11.4074
155.251 11.5082
155.272 11.6208
155.294 11.7478
155.315 11.8901
155.336 12.0508
155.357 12.2328
155.378 12.4410
155.399 12.6777
155.420 12.9493
155.441 13.2626
155.463 13.6276
155.484 14.0510
155.494 14.2901
155.505 14.5466
155.515 14.8275
155.526 15.1296
155.537 15.4938
155.549 15.8897
155.561 16.3281
155.572 16.8056
155.584 17.3353
155.595 17.9132
155.607 18.5491
155.618 19.2492
155.630 20.0272
155.641 20.8770
155.653 21.8129
155.664 22.8434
155.676 23.9882
155.687 25.2375
155.699 26.6114
155.710 28.1212
155.721 29.6437
155.732 31.3019
155.742 33.1065
155.753 35.0490
155.763 37.1780
155.774 39.4876
155.784 41.9900
155.795 44.6714
155.806 47.5956
155.816 50.7513
155.827 54.1516
155.837 57.7742
155.848 61.7011
155.858 65.8712
155.869 70.3765
155.879 75.1441
155.888 79.0858
155.896 83.2247
155.904 87.5658
155.912 92.0568
155.920 96.8127
155.929 101.783
155.937 106.971
155.945 112.313
155.953 117.941
155.961 123.793
155.969 129.870
155.978 136.094
155.986 142.617
155.994 149.280
156.002 156.243
156.010 163.335
156.022 173.760
156.033 184.588
156.050 201.596
156.068 219.394
156.085 237.880
156.102 256.820
156.123 280.721
156.145 304.838
156.187 352.783
156.208 375.844
156.229 397.619
156.250 417.820
156.271 436.059
156.292 451.972
156.314 465.294
156.328 472.674
156.342 478.585
156.361 484.133
156.380 487.018
156.390 487.468
156.411 485.947
156.432 481.266
156.453 472.997
156.475 461.526
156.497 446.916
156.519 429.739
156.541 410.238
156.563 389.017
156.582 370.518
156.600 351.346
156.636 312.052
156.658 287.925
156.680 264.295
156.702 241.261
156.724 219.293
156.736 207.698
156.748 196.576
156.760 185.764
156.772 175.460
156.784 165.505
156.796 156.074
156.808 147.088
156.820 138.551
156.831 131.051
156.842 123.993
156.853 117.243
156.864 110.917
156.876 104.890
156.887 99.2633
156.898 93.9690
156.909 88.9964
156.920 84.2921
156.931 79.9282
156.942 75.8119
156.953 72.0041
156.964 68.4216
156.975 65.1155
156.986 62.0387
156.997 59.1781
157.008 56.4974
157.019 54.0320
157.030 51.7247
157.041 49.6050
157.052 47.6228
157.063 45.8029
157.074 44.1163
157.085 42.5533
157.096 41.0918
157.107 39.7495
157.118 38.5044
157.129 37.3488
157.140 36.2663
157.151 35.2696
157.162 34.3425
157.173 33.4791
157.182 32.8094
157.191 32.1837
157.201 31.5855
157.210 31.0257
157.219 30.4896
157.228 29.9870
157.246 29.0564
157.264 28.2100
157.282 27.4455
157.300 26.7443
157.318 26.1057
157.336 25.5152
157.354 24.9730
157.372 24.4678
157.390 24.0007
157.408 23.5624
157.426 23.1546
157.444 22.7698
157.462 22.4097
157.484 21.9953
157.506 21.6083
157.529 21.2459
157.551 20.9070
157.573 20.5865
157.595 20.2842
157.617 19.9983
157.639 19.7289
157.661 19.4720
157.683 19.2280
157.727 18.7755
157.771 18.3637
157.815 17.9869
157.856 17.6704
157.896 17.3771
157.936 17.1040
157.976 16.8490
158.008 16.6566
158.040 16.4738
158.072 16.2998
158.104 16.1340
158.168 15.8247
158.233 15.5418
158.297 15.2817
158.361 15.0417
158.425 14.8194
158.489 14.6130
158.551 14.4287
158.612 14.2558
158.673 14.0931
158.734 13.9400
158.796 13.7950
158.857 13.6576
158.918 13.5272
158.980 13.4034
159.041 13.2852
159.102 13.1724
159.225 12.9615
159.347 12.7674
159.470 12.5881
159.592 12.4215
159.715 12.2661
159.837 12.1205
159.960 11.9836
160.082 11.8543
160.205 11.7322
160.327 11.6163
160.450 11.5063
160.585 11.3913
160.720 11.2823
160.854 11.1788
160.989 11.0806
161.124 10.9875
161.259 10.8995
161.394 10.8166
161.528 10.7390
161.663 10.6670
161.798 10.6011
161.865 10.5706
161.933 10.5420
162.000 10.5154
162.067 10.4909
162.135 10.4688
162.202 10.4492
162.270 10.4324
162.337 10.4188
162.404 10.4088
162.472 10.4026
162.539 10.4010
162.607 10.4044
162.674 10.4136
162.741 10.4296
162.809 10.4533
162.876 10.4861
162.944 10.5296
163.011 10.5855
163.078 10.6564
163.112 10.6983
163.146 10.7450
163.176 10.7923
163.207 10.8443
163.238 10.9018
163.268 10.9650
163.299 11.0349
163.330 11.1116
163.360 11.1962
163.391 11.2895
163.421 11.3928
163.452 11.5067
163.483 11.6332
163.513 11.7730
163.544 11.9288
163.575 12.1019
163.605 12.2951
163.636 12.5117
163.667 12.7562
163.697 13.0317
163.728 13.3449
163.758 13.7030
163.774 13.9032
163.789 14.1170
163.804 14.3475
163.820 14.5964
163.835 14.8659
163.850 15.1583
163.866 15.4764
163.881 15.8233
163.898 16.2443
163.915 16.7074
163.931 17.2247
163.948 17.7972
163.965 18.4402
163.982 19.1559
163.999 19.9639
164.016 20.8673
164.033 21.8912
164.049 23.0399
164.058 23.6765
164.066 24.3454
164.075 25.0566
164.083 25.8128
164.092 26.6268
164.100 27.4825
164.108 28.3925
164.117 29.3600
164.125 30.4013
164.134 31.4956
164.142 32.6586
164.150 33.8942
164.160 35.3359
164.169 36.8754
164.178 38.5185
164.187 40.2714
164.196 42.1403
164.206 44.1315
164.215 46.2517
164.224 48.4822
164.233 50.8788
164.242 53.4246
164.252 56.1265
164.261 58.9915
164.270 62.0263
164.279 65.2380
164.288 68.6332
164.297 72.1785
164.306 75.6635
164.314 79.2770
164.323 83.1095
164.331 87.0753
164.340 91.2727
164.348 95.6065
164.365 104.841
164.382 114.910
164.399 125.707
164.416 137.365
164.432 149.738
164.446 160.475
164.460 171.710
164.474 183.422
164.487 195.491
164.501 208.059
164.515 220.996
164.543 247.677
164.576 281.408
164.610 315.285
164.644 348.091
164.661 363.728
164.677 378.510
164.697 394.811
164.717 409.551
164.734 420.661
164.751 430.280
164.774 440.891
164.797 448.373
164.813 451.815
164.830 453.445
164.834 453.572
164.848 453.192
164.862 451.618
164.875 448.870
164.889 444.971
164.910 436.596
164.932 425.647
164.947 416.045
164.963 405.274
164.979 393.450
164.995 380.701
165.026 352.955
165.058 323.119
165.121 261.369
165.151 232.614
165.166 218.722
165.181 205.329
165.197 192.312
165.212 179.887
165.227 167.926
165.242 156.612
165.257 145.329
165.273 134.710
165.289 124.757
165.305 115.468
165.321 106.833
165.336 98.8351
165.352 91.4541
165.368 84.7061
165.379 80.3892
165.390 76.3262
165.400 72.5073
165.411 68.9542
165.422 65.5903
165.433 62.4674
165.443 59.5167
165.454 56.7826
165.465 54.2037
165.476 51.7962
165.486 49.5501
165.497 47.4744
165.508 45.5211
165.519 43.7175
165.529 42.0211
165.540 40.4553
165.548 39.3681
165.556 38.3360
165.564 37.3561
165.572 36.4257
165.588 34.7032
165.603 33.1486
165.619 31.7439
165.635 30.4730
165.651 29.3211
165.667 28.2751
165.682 27.3232
165.698 26.4548
165.714 25.6607
165.730 24.9325
165.746 24.2630
165.761 23.6458
165.777 23.0751
165.793 22.5493
165.812 21.9706
165.830 21.4379
165.849 20.9456
165.868 20.4916
165.886 20.0670
165.905 19.6730
165.924 19.3023
165.942 18.9565
165.961 18.6295
165.979 18.3230
165.998 18.0320
166.017 17.7582
166.054 17.2509
166.091 16.7925
166.123 16.4370
166.155 16.1081
166.186 15.8029
166.218 15.5188
166.249 15.2537
166.281 15.0058
166.313 14.7735
166.344 14.5561
166.376 14.3510
166.407 14.1578
166.439 13.9755
166.470 13.8040
166.502 13.6414
166.534 13.4876
166.565 13.3421
166.597 13.2048
166.637 13.0403
166.677 12.8873
166.717 12.7453
166.757 12.6145
166.798 12.4945
166.838 12.3864
166.878 12.2914
166.918 12.2123
166.941 12.1754
166.964 12.1458
166.987 12.1249
167.010 12.1143
167.033 12.1161
167.056 12.1327
167.079 12.1674
167.090 12.1928
167.102 12.2238
167.113 12.2617
167.125 12.3069
167.136 12.3601
167.148 12.4221
167.159 12.4937
167.171 12.5757
167.182 12.6693
167.194 12.7743
167.205 12.8938
167.217 13.0280
167.228 13.1782
167.240 13.3442
167.251 13.5301
167.263 13.7360
167.274 13.9633
167.285 14.2113
167.298 14.5033
167.310 14.8247
167.322 15.1774
167.334 15.5631
167.346 15.9838
167.359 16.4412
167.371 16.9370
167.383 17.4730
167.395 18.0506
167.407 18.6712
167.420 19.3360
167.432 20.0460
167.444 20.8020
167.456 21.6044
167.468 22.4535
167.481 23.3490
167.496 24.5769
167.512 25.8798
167.528 27.2545
167.544 28.6964
167.560 30.1999
167.575 31.7577
167.607 34.9914
167.639 38.3361
167.670 41.6817
167.702 44.9145
167.718 46.4508
167.733 47.9131
167.752 49.5277
167.771 50.9860
167.786 52.0924
167.802 53.0585
167.814 53.6754
167.829 54.3822
167.845 54.9290
167.857 55.2486
167.869 55.4633
167.880 55.5671
167.894 55.5814
167.907 55.4660
167.910 55.4278
167.918 55.2852
167.926 55.1014
167.942 54.6049
167.959 53.9073
167.975 53.0442
167.992 52.0170
168.008 50.8510
168.033 48.9149
168.057 46.7610
168.090 43.5267
168.124 40.1062
168.169 35.3826
168.192 33.0777
168.214 30.8524
168.231 29.2805
168.248 27.7732
168.264 26.3369
168.281 24.9843
168.298 23.7026
168.314 22.5093
168.331 21.3908
168.348 20.3603
168.364 19.4482
168.379 18.6077
168.395 17.8364
168.411 17.1317
168.427 16.4903
168.435 16.1905
168.443 15.9089
168.451 15.6380
168.459 15.3841
168.467 15.1403
168.475 14.9122
168.491 14.4896
168.507 14.1128
168.523 13.7784
168.538 13.4833
168.554 13.2244
168.570 12.9989
168.586 12.8045
168.602 12.6400
168.619 12.4952
168.635 12.3786
168.652 12.2889
168.669 12.2258
168.685 12.1881
168.702 12.1765
168.719 12.1913
168.735 12.2337
168.752 12.3058
168.769 12.4096
168.785 12.5480
168.802 12.7230
168.810 12.8270
168.819 12.9406
168.827 13.0657
168.835 13.2027
168.844 13.3542
168.852 13.5172
168.860 13.6942
168.869 13.8860
168.881 14.2148
168.894 14.5840
168.907 14.9964
168.920 15.4517
168.933 15.9603
168.946 16.5220
168.959 17.1405
168.972 17.8136
168.984 18.5552
168.997 19.3636
169.010 20.2420
169.023 21.1857
169.036 22.2122
169.049 23.3080
169.062 24.4923
169.074 25.7483
169.091 27.5099
169.108 29.4117
169.125 31.4528
169.141 33.6172
169.158 35.9258
169.174 38.3438
169.191 40.8907
169.208 43.5235
169.227 46.7587
169.247 50.0861
169.267 53.4719
169.286 56.8610
169.320 62.5478
169.353 67.9557
169.376 71.3802
169.399 74.4826
169.415 76.5302
169.432 78.3407
169.438 78.9357
169.461 80.8802
169.477 81.9654
169.492 82.7191
169.504 83.1289
169.516 83.3881
169.518 83.4264
169.525 83.4841
169.531 83.4978
169.543 83.3971
169.559 83.0267
169.575 82.3899
169.591 81.4300
169.608 80.1925
169.625 78.6947
169.641 76.9570
169.666 74.0481
169.690 70.7590
169.723 65.7735
169.757 60.4715
169.781 56.5189
169.805 52.5839
169.830 48.7365
169.854 45.0517
169.872 42.3931
169.890 39.8772
169.908 37.5026
169.927 35.2794
169.945 33.2146
169.963 31.3123
169.981 29.5741
169.990 28.7664
169.999 27.9992
170.009 27.2723
170.018 26.5851
170.027 25.9371
170.036 25.3277
170.045 24.7562
170.054 24.2218
170.063 23.7239
170.072 23.2615
170.089 22.5028
170.106 21.8561
170.122 21.3165
170.139 20.8794
170.156 20.5404
170.172 20.2962
170.189 20.1438
170.206 20.0814
170.222 20.1074
170.239 20.2228
170.256 20.4292
170.273 20.7295
170.289 21.1282
170.306 21.6317
170.323 22.2480
170.339 22.9824
170.351 23.6064
170.364 24.3019
170.377 25.1891
170.391 26.1917
170.405 27.3209
170.418 28.5790
170.432 29.9982
170.446 31.5724
170.459 33.3410
170.473 35.2954
170.487 37.4834
170.500 39.8929
170.514 42.5811
170.527 45.5311
170.541 48.8103
170.555 52.3953
170.568 56.3648
170.582 60.6869
170.590 63.5579
170.599 66.5533
170.607 69.7514
170.615 73.0821
170.624 76.6319
170.632 80.3222
170.641 84.2477
170.649 88.3207
170.657 92.6448
170.666 97.1223
170.674 101.866
170.682 106.768
170.691 111.950
170.699 117.293
170.707 122.861
170.716 128.656
170.732 141.015
170.749 154.315
170.766 168.557
170.782 183.730
170.799 199.809
170.816 216.752
170.832 234.505
170.849 252.883
170.866 272.017
170.882 291.695
170.916 332.174
170.949 373.162
170.983 413.296
171.011 446.074
171.040 476.117
171.057 491.904
171.074 506.270
171.090 519.051
171.107 530.097
171.130 542.010
171.152 550.285
171.166 553.517
171.180 555.245
171.184 555.465
171.197 555.287
171.211 553.764
171.224 550.911
171.237 546.754
171.257 538.151
171.277 526.854
171.296 513.516
171.315 498.054
171.339 475.628
171.364 450.807
171.383 429.798
171.402 408.009
171.441 362.898
171.479 317.385
171.498 295.171
171.518 273.544
171.533 257.272
171.547 241.623
171.562 226.440
171.577 211.973
171.592 198.060
171.607 184.914
171.622 172.457
171.636 160.695
171.646 153.366
171.656 146.407
171.665 139.737
171.675 133.356
171.684 127.257
171.694 121.436
171.704 115.888
171.713 110.606
171.723 105.533
171.733 100.765
171.742 96.2410
171.752 91.9533
171.761 87.8933
171.771 84.0525
171.781 80.4223
171.790 76.9939
171.802 73.1729
171.813 69.6399
171.824 66.3180
171.836 63.2517
171.847 60.3728
171.858 57.7188
171.870 55.2297
171.881 52.9370
171.892 50.7880
171.904 48.8093
171.915 46.9550
171.926 45.2475
171.938 43.6469
171.949 42.1721
171.960 40.7886
171.972 39.5126
171.981 38.4875
171.991 37.5322
172.001 36.6318
172.010 35.7828
172.020 34.9815
172.029 34.2248
172.039 33.5095
172.049 32.8328
172.068 31.5786
172.087 30.4561
172.106 29.4420
172.126 28.5220
172.145 27.6799
172.164 26.9139
172.183 26.2105
172.202 25.5622
172.222 24.9625
172.241 24.4058
172.260 23.8873
172.279 23.4029
172.299 22.9469
172.318 22.5209
172.337 22.1198
172.356 21.7414
172.375 21.3836
172.395 21.0447
172.433 20.4176
172.471 19.8481
172.510 19.3309
172.548 18.8576
172.587 18.4228
172.625 18.0208
172.664 17.6498
172.702 17.3045
172.740 16.9840
172.779 16.6840
172.817 16.4041
172.856 16.1415
172.894 15.8948
172.933 15.6618
172.971 15.4426
173.009 15.2353
173.048 15.0391
173.086 14.8525
173.125 14.6758
173.202 14.3476
173.247 14.1674
173.292 13.9971
173.338 13.8355
173.383 13.6820
173.474 13.3963
173.565 13.1364
173.656 12.8982
173.747 12.6793
173.837 12.4771
173.928 12.2894
174.040 12.0758
174.152 11.8792
174.264 11.6974
174.375 11.5286
174.487 11.3713
174.599 11.2243
174.711 11.0866
174.823 10.9573
174.969 10.7990
175.043 10.7244
175.116 10.6529
175.189 10.5839
175.263 10.5177
175.336 10.4542
175.410 10.3934
175.483 10.3351
175.556 10.2794
175.630 10.2265
175.703 10.1764
175.776 10.1291
175.850 10.0850
175.923 10.0440
175.996 10.0067
176.073 9.97165
176.150 9.94138
176.227 9.91646
176.304 9.89767
176.381 9.88588
176.458 9.88231
176.535 9.88842
176.573 9.89567
176.611 9.90608
176.678 9.93247
176.744 9.97123
176.777 9.99600
176.811 10.0248
176.844 10.0582
176.877 10.0964
176.910 10.1402
176.943 10.1901
176.977 10.2468
177.010 10.3111
177.043 10.3840
177.076 10.4666
177.109 10.5601
177.142 10.6658
177.181 10.8069
177.219 10.9702
177.258 11.1606
177.277 11.2675
177.296 11.3835
177.315 11.5100
177.335 11.6469
177.354 11.7961
177.373 11.9590
177.392 12.1374
177.411 12.3331
177.431 12.5485
177.450 12.7863
177.468 13.0380
177.487 13.3146
177.505 13.6229
177.523 13.9638
177.542 14.3459
177.560 14.7708
177.578 15.2496
177.597 15.7846
177.615 16.3905
177.633 17.0704
177.652 17.8431
177.661 18.2669
177.670 18.7128
177.679 19.1926
177.688 19.7035
177.698 20.2475
177.707 20.8202
177.716 21.4367
177.725 22.0858
177.734 22.7844
177.743 23.5198
177.753 24.3555
177.763 25.2383
177.772 26.1801
177.782 27.1845
177.791 28.2551
177.801 29.3958
177.811 30.6106
177.820 31.9035
177.830 33.2787
177.839 34.7405
177.849 36.2932
177.859 37.9413
177.868 39.6890
177.878 41.5410
177.887 43.5016
177.897 45.5753
177.907 47.7899
177.916 50.1041
177.926 52.5444
177.936 55.1147
177.945 57.8190
177.955 60.6609
177.964 63.6438
177.974 66.7708
177.984 70.0797
177.993 73.5046
178.003 77.0809
178.012 80.8102
178.022 84.6936
178.032 88.7315
178.041 92.9241
178.051 97.2705
178.064 103.447
178.077 109.903
178.090 116.629
178.103 123.616
178.116 130.849
178.129 138.313
178.143 145.988
178.156 153.852
178.175 165.666
178.194 177.743
178.213 189.977
178.232 202.257
178.259 218.921
178.285 235.032
178.304 246.322
178.323 257.019
178.343 266.981
178.362 276.075
178.381 284.175
178.400 291.134
178.423 297.791
178.445 302.659
178.463 305.144
178.480 306.460
178.500 306.503
178.516 305.495
178.531 303.608
178.546 300.864
178.561 297.316
178.575 293.358
178.589 288.805
178.616 277.985
178.644 265.114
178.672 250.665
178.702 233.534
178.732 215.485
178.760 198.505
178.787 181.611
178.815 165.065
178.842 149.143
178.856 141.431
178.870 134.009
178.884 126.841
178.898 119.940
178.911 113.319
178.925 106.987
178.939 100.950
178.953 95.2106
178.964 90.9667
178.974 86.9018
178.985 83.0147
178.996 79.3371
179.006 75.7969
179.017 72.4264
179.028 69.2217
179.038 66.2063
179.049 63.3188
179.060 60.5836
179.070 57.9954
179.081 55.5711
179.092 53.2596
179.102 51.0986
179.113 49.0417
179.124 47.1217
179.137 44.7725
179.151 42.6181
179.165 40.6292
179.179 38.7943
179.193 37.1025
179.206 35.5431
179.220 34.1060
179.234 32.7817
179.248 31.5525
179.262 30.4277
179.276 29.3901
179.289 28.4323
179.303 27.5474
179.317 26.7290
179.331 25.9714
179.345 25.2691
179.361 24.4998
179.377 23.7982
179.394 23.1531
179.410 22.5584
179.426 22.0058
179.443 21.4971
179.459 21.0249
179.475 20.5855
179.492 20.1731
179.508 19.7898
179.524 19.4307
179.540 19.0933
179.557 18.7756
179.573 18.4761
179.589 18.1929
179.606 17.9248
179.633 17.5003
179.661 17.1119
179.689 16.7536
179.716 16.4219
179.744 16.1138
179.771 15.8267
179.799 15.5584
179.827 15.3070
179.854 15.0701
179.882 14.8481
179.909 14.6387
179.937 14.4409
179.965 14.2537
179.992 14.0762
180.047 13.7477
180.080 13.5678
180.113 13.3984
180.145 13.2374
180.178 13.0853
180.211 12.9403
180.243 12.8028
180.309 12.5470
180.374 12.3134
180.439 12.0993
180.504 11.9024
180.570 11.7208
180.615 11.6028
180.660 11.4907
180.705 11.3840
180.750 11.2824
180.841 11.0930
180.931 10.9202
181.022 10.7619
181.112 10.6166
181.202 10.4834
181.293 10.3614
181.388 10.2439
181.484 10.1380
181.579 10.0437
181.627 10.0011
181.674 9.96150
181.722 9.92510
181.770 9.89221
181.818 9.86297
181.865 9.83766
181.913 9.81661
181.961 9.80023
182.008 9.78902
182.056 9.78358
182.111 9.78546
182.167 9.79744
182.222 9.82126
182.277 9.85916
182.305 9.88435
182.332 9.91412
182.360 9.94904
182.387 9.98970
182.415 10.0368
182.443 10.0910
182.470 10.1534
182.498 10.2250
182.519 10.2877
182.541 10.3571
182.562 10.4348
182.583 10.5209
182.605 10.6176
182.626 10.7252
182.647 10.8466
182.669 10.9826
182.690 11.1369
182.711 11.3109
182.733 11.5100
182.754 11.7366
182.775 11.9979
182.797 12.2980
182.818 12.6454
182.829 12.8406
182.839 13.0493
182.853 13.3462
182.867 13.6748
182.881 14.0388
182.895 14.4427
182.908 14.8911
182.922 15.3893
182.936 15.9431
182.950 16.5591
182.964 17.2443
182.977 18.0064
182.991 18.8540
183.005 19.7962
183.019 20.8430
183.033 22.0051
183.046 23.2940
183.060 24.7219
183.068 25.5725
183.075 26.4592
183.083 27.4081
183.090 28.3966
183.098 29.4534
183.105 30.5532
183.113 31.7118
183.120 32.9320
183.131 34.6766
183.141 36.5244
183.151 38.5186
183.161 40.6261
183.171 42.8952
183.181 45.2874
183.191 47.8568
183.201 50.5584
183.211 53.4525
183.221 56.4873
183.231 59.7290
183.241 63.1187
183.251 66.7289
183.261 70.4925
183.271 74.4480
183.281 78.5987
183.295 84.6972
183.309 91.1345
183.323 97.9552
183.336 105.158
183.350 112.738
183.364 120.688
183.378 128.995
183.392 137.644
183.406 146.679
183.419 155.946
183.447 175.247
183.475 195.324
183.502 215.822
183.530 236.328
183.557 256.382
183.585 275.492
183.613 293.154
183.634 305.538
183.655 316.492
183.669 322.765
183.683 328.333
183.698 333.663
183.714 338.011
183.735 342.362
183.757 344.634
183.760 344.807
183.767 344.986
183.791 343.940
183.814 340.464
183.832 336.091
183.850 330.377
183.868 323.425
183.886 315.305
183.907 304.338
183.929 292.090
183.947 280.901
183.965 269.086
184.001 244.130
184.073 192.495
184.101 173.173
184.128 154.807
184.142 146.036
184.156 137.573
184.170 129.437
184.184 121.645
184.202 112.030
184.220 103.080
184.238 94.7469
184.247 90.8105
184.256 87.0265
184.265 83.3933
184.274 79.9089
184.283 76.5712
184.292 73.3775
184.301 70.3249
184.310 67.4101
184.319 64.6298
184.328 61.9804
184.339 58.9955
184.349 56.2092
184.360 53.5621
184.371 51.0968
184.381 48.7599
184.392 46.5881
184.403 44.5333
184.413 42.6272
184.424 40.8269
184.435 39.1593
184.445 37.5864
184.456 36.1312
184.467 34.7601
184.477 33.4927
184.488 32.3100
184.498 31.2067
184.508 30.3189
184.517 29.4914
184.526 28.7114
184.535 27.9761
184.544 27.2828
184.553 26.6289
184.562 26.0121
184.571 25.4300
184.580 24.8806
184.589 24.3617
184.598 23.8714
184.607 23.4079
184.616 22.9695
184.625 22.5545
184.643 21.7889
184.661 21.1001
184.679 20.4784
184.697 19.9153
184.715 19.4034
184.733 18.9364
184.751 18.5088
184.769 18.1156
184.787 17.7529
184.805 17.4153
184.823 17.1035
184.841 16.8128
184.859 16.5409
184.877 16.2860
184.895 16.0464
184.913 15.8204
184.931 15.6070
184.967 15.2120
185.003 14.8563
185.039 14.5327
185.075 14.2369
185.111 13.9643
185.147 13.7134
185.183 13.4809
185.219 13.2647
185.255 13.0626
185.291 12.8740
185.327 12.6972
185.363 12.5310
185.399 12.3739
185.435 12.2260
185.471 12.0860
185.507 11.9533
185.543 11.8272
185.579 11.7073
185.651 11.4839
185.700 11.3425
185.749 11.2095
185.798 11.0838
185.848 10.9647
185.897 10.8514
185.946 10.7439
186.044 10.5435
186.142 10.3598
186.241 10.1907
186.339 10.0338
186.437 9.88749
186.516 9.77704
186.594 9.67184
186.673 9.57136
186.751 9.47516
186.830 9.38281
186.909 9.29396
186.987 9.20832
187.066 9.12559
187.210 8.98076
187.354 8.84379
187.498 8.71379
187.642 8.59024
187.714 8.53066
187.786 8.47267
187.858 8.41610
187.930 8.36115
188.002 8.30774
188.074 8.25609
188.146 8.20627
188.218 8.15843
188.304 8.10472
188.389 8.05466
188.474 8.00879
188.559 7.96811
188.644 7.93365
188.687 7.91924
188.729 7.90705
188.772 7.89728
188.814 7.89031
188.857 7.88647
188.899 7.88623
188.962 7.89345
189.024 7.91148
189.055 7.92534
189.086 7.94296
189.117 7.96479
189.148 7.99138
189.180 8.02348
189.211 8.06164
189.242 8.10684
189.273 8.16017
189.304 8.22294
189.335 8.29677
189.366 8.38370
189.397 8.48629
189.415 8.55448
189.433 8.62941
189.451 8.71236
189.469 8.80439
189.487 8.90672
189.505 9.02080
189.523 9.14834
189.541 9.29134
189.559 9.45214
189.577 9.63350
189.595 9.83865
189.613 10.0714
189.631 10.3361
189.649 10.6380
189.667 10.9830
189.685 11.3781
189.701 11.7673
189.717 12.2059
189.732 12.7008
189.748 13.2555
189.763 13.8856
189.779 14.5919
189.794 15.3938
189.810 16.2921
189.818 16.7861
189.825 17.3104
189.833 17.8667
189.841 18.4489
189.849 19.0740
189.857 19.7366
189.864 20.4386
189.872 21.1722
189.880 21.9586
189.888 22.7907
189.895 23.6707
189.903 24.5886
189.911 25.5705
189.919 26.6073
189.927 27.7014
189.934 28.8401
189.947 30.9179
189.960 33.1832
189.974 35.6481
189.987 38.3249
190.000 41.2257
190.013 44.3623
190.026 47.7463
190.039 51.3886
190.048 54.0461
190.057 56.8336
190.066 59.7539
190.075 62.8096
190.084 66.0032
190.093 69.3367
190.102 72.8117
190.111 76.4295
190.120 80.1911
190.129 84.0970
190.147 92.3407
190.165 101.155
190.183 110.523
190.195 117.232
190.208 124.178
190.220 131.349
190.232 138.728
190.257 154.040
190.281 169.879
190.317 193.781
190.353 217.731
190.380 234.684
190.406 250.823
190.424 261.301
190.442 271.038
190.460 279.981
190.478 288.020
190.496 295.058
190.514 301.005
190.535 306.422
190.555 310.194
190.580 312.446
190.587 312.644
190.610 311.890
190.633 309.046
190.653 304.981
190.672 299.491
190.692 292.629
190.712 284.576
190.732 275.426
190.751 265.372
190.771 254.402
190.791 242.829
190.830 218.338
190.870 193.053
190.909 168.070
190.938 150.589
190.952 142.209
190.966 134.086
190.981 126.190
190.995 118.651
191.009 111.429
191.024 104.534
191.043 95.5427
191.053 91.2921
191.063 87.2458
191.073 83.3207
191.083 79.5953
191.093 75.9917
191.102 72.5809
191.112 69.2906
191.122 66.1844
191.132 63.1955
191.142 60.3808
191.152 57.6788
191.162 55.1401
191.171 52.7085
191.181 50.4287
191.194 47.6760
191.206 45.1348
191.219 42.7544
191.231 40.5628
191.244 38.5150
191.257 36.6340
191.269 34.8935
191.282 33.2842
191.294 31.7860
191.307 30.4140
191.319 29.1380
191.332 27.9704
191.344 26.8849
191.357 25.8918
191.369 24.9756
191.382 24.1300
191.392 23.5065
191.402 22.9211
191.412 22.3711
191.421 21.8592
191.431 21.3727
191.441 20.9195
191.451 20.4881
191.461 20.0857
191.471 19.7021
191.480 19.3436
191.500 18.6810
191.520 18.0870
191.540 17.5525
191.559 17.0694
191.579 16.6309
191.599 16.2313
191.618 15.8655
191.638 15.5293
191.658 15.2191
191.677 14.9317
191.697 14.6647
191.728 14.2863
191.758 13.9454
191.789 13.6346
191.819 13.3516
191.849 13.0910
191.880 12.8518
191.910 12.6300
191.941 12.4254
191.971 12.2348
192.002 12.0583
192.032 11.8934
192.063 11.7404
192.123 11.4644
192.184 11.2251
192.224 11.0876
192.263 10.9634
192.303 10.8514
192.342 10.7512
192.381 10.6626
192.421 10.5853
192.460 10.5194
192.500 10.4648
192.539 10.4219
192.578 10.3910
192.618 10.3726
192.657 10.3675
192.697 10.3766
192.736 10.4009
192.775 10.4419
192.815 10.5013
192.861 10.5980
192.908 10.7277
192.955 10.8956
192.978 10.9960
193.001 11.1081
193.024 11.2343
193.048 11.3754
193.071 11.5329
193.094 11.7088
193.118 11.9053
193.141 12.1248
193.164 12.3705
193.187 12.6447
193.207 12.9039
193.227 13.1907
193.247 13.5085
193.266 13.8618
193.286 14.2557
193.306 14.6961
193.325 15.1902
193.345 15.7463
193.365 16.3743
193.384 17.0860
193.404 17.8951
193.424 18.8179
193.444 19.8731
193.453 20.4604
193.463 21.0831
193.473 21.7575
193.483 22.4735
193.493 23.2495
193.503 24.0740
193.516 25.3097
193.530 26.6617
193.543 28.1636
193.556 29.8077
193.570 31.6343
193.583 33.6333
193.597 35.8358
193.610 38.2614
193.617 39.5841
193.624 40.9517
193.630 42.3858
193.637 43.8894
193.644 45.4895
193.651 47.1422
193.657 48.8736
193.664 50.6871
193.671 52.6147
193.677 54.6034
193.684 56.6843
193.691 58.8608
193.698 61.1365
193.704 63.5151
193.711 66.0002
193.718 68.5957
193.728 72.6405
193.737 76.9018
193.747 81.4786
193.757 86.2908
193.767 91.4487
193.777 96.8602
193.787 102.648
193.796 108.706
193.806 115.170
193.816 121.920
193.826 129.104
193.836 136.587
193.846 144.531
193.856 152.783
193.865 161.519
193.875 170.569
193.887 181.905
193.899 193.720
193.910 206.222
193.922 219.196
193.934 232.865
193.945 246.987
193.957 261.797
193.968 277.027
193.988 304.087
194.008 332.550
194.028 362.265
194.047 393.043
194.067 424.663
194.087 456.864
194.126 521.819
194.155 568.347
194.183 612.800
194.203 641.708
194.223 668.786
194.242 693.672
194.262 716.022
194.282 735.518
194.302 751.880
194.326 767.345
194.350 777.358
194.370 781.450
194.374 781.794
194.387 781.787
194.401 780.080
194.414 776.688
194.427 771.639
194.440 764.916
194.453 756.668
194.480 735.720
194.507 708.244
194.535 675.848
194.562 639.201
194.589 599.536
194.627 542.037
194.664 482.929
194.691 439.775
194.719 397.857
194.746 357.646
194.760 338.273
194.773 319.644
194.787 301.529
194.801 284.101
194.814 267.388
194.828 251.410
194.842 236.181
194.855 221.706
194.869 207.987
194.883 195.111
194.896 183.399
194.909 172.435
194.922 162.035
194.935 152.340
194.948 143.181
194.961 134.675
194.974 126.669
194.987 119.260
195.000 112.308
195.013 105.895
195.026 99.8941
195.039 94.3722
195.052 89.2180
195.065 84.4848
195.078 80.1073
195.091 76.0617
195.105 72.1320
195.119 68.5194
195.132 65.1996
195.146 62.1704
195.160 59.3656
195.173 56.7878
195.187 54.4176
195.201 52.2526
195.214 50.2442
195.228 48.3936
195.242 46.6868
195.255 45.1217
195.269 43.6635
195.283 42.3132
195.297 41.0609
195.310 39.9058
195.330 38.3571
195.350 36.9569
195.370 35.6860
195.390 34.5278
195.410 33.4680
195.430 32.4947
195.449 31.5972
195.469 30.7708
195.489 29.9994
195.509 29.2808
195.529 28.6094
195.549 27.9803
195.569 27.3892
195.589 26.8326
195.609 26.3072
195.628 25.8128
195.656 25.1707
195.683 24.5747
195.710 24.0158
195.738 23.4941
195.765 23.0025
195.792 22.5415
195.820 22.1053
195.847 21.6947
195.875 21.3047
195.902 20.9365
195.929 20.5857
195.957 20.2534
196.011 19.6347
196.066 19.0725
196.103 18.7165
196.140 18.3809
196.178 18.0641
196.215 17.7645
196.252 17.4806
196.290 17.2112
196.327 16.9553
196.364 16.7125
196.439 16.2591
196.513 15.8456
196.588 15.4667
196.662 15.1185
196.717 14.8800
196.772 14.6545
196.827 14.4409
196.881 14.2384
196.936 14.0459
196.991 13.8627
197.045 13.6882
197.100 13.5216
197.209 13.2100
197.319 12.9240
197.428 12.6601
197.538 12.4158
197.622 12.2385
197.707 12.0707
197.791 11.9112
197.876 11.7594
197.960 11.6144
198.045 11.4760
198.129 11.3434
198.214 11.2162
198.383 10.9760
198.552 10.7528
198.721 10.5442
198.890 10.3482
199.049 10.1737
199.208 10.0076
199.367 9.84906
199.526 9.69711
199.645 9.58785
199.763 9.48174
199.882 9.37842
200.000 9.27789
200.165 9.14194
200.248 9.07581
200.330 9.01095
200.444 8.92388
200.558 8.83950
200.671 8.75817
200.785 8.68055
200.842 8.64333
200.898 8.60739
200.955 8.57293
201.012 8.54024
201.069 8.50953
201.125 8.48125
201.182 8.45592
201.239 8.43425
201.296 8.41708
201.353 8.40571
201.381 8.40275
201.409 8.40197
201.438 8.40377
201.466 8.40857
201.494 8.41701
201.523 8.42982
201.551 8.44796
201.580 8.47269
201.608 8.50564
201.636 8.54891
201.665 8.60524
201.679 8.63937
201.693 8.67789
201.711 8.73504
201.729 8.80221
201.747 8.88108
201.765 8.97307
201.784 9.08145
201.802 9.20762
201.820 9.35596
201.838 9.52824
201.847 9.62592
201.856 9.73023
201.865 9.84404
201.874 9.96545
201.883 10.0978
201.892 10.2388
201.901 10.3907
201.910 10.5540
201.919 10.7316
201.928 10.9205
201.937 11.1233
201.946 11.3409
201.955 11.5769
201.964 11.8271
201.973 12.0950
201.982 12.3816
201.996 12.8525
202.009 13.3722
202.023 13.9448
202.036 14.5693
202.050 15.2592
202.064 16.0084
202.077 16.8323
202.091 17.7229
202.104 18.6976
202.118 19.7461
202.131 20.8878
202.145 22.1095
202.158 23.4329
202.172 24.8414
202.186 26.3587
202.199 27.9646
202.213 29.7627
202.227 31.6737
202.242 33.6978
202.256 35.8190
202.270 38.0658
202.284 40.4207
202.298 42.8800
202.312 45.4202
202.341 50.8074
202.369 56.4999
202.398 62.4115
202.426 68.4371
202.454 74.4549
202.483 80.3295
202.511 85.9174
202.540 91.0724
202.562 94.6773
202.584 97.8611
202.598 99.6830
202.612 101.287
202.626 102.684
202.640 103.851
202.656 104.886
202.672 105.599
202.690 106.017
202.702 106.075
202.720 105.831
202.737 105.196
202.751 104.428
202.765 103.439
202.779 102.231
202.793 100.815
202.815 98.0723
202.838 94.8540
202.865 90.3694
202.893 85.3923
202.921 80.0334
202.948 74.4628
202.976 68.7884
203.004 63.1277
203.031 57.5857
203.059 52.2705
203.073 49.6859
203.086 47.1981
203.100 44.7943
203.114 42.4799
203.128 40.2590
203.142 38.1348
203.155 36.1095
203.169 34.1844
203.182 32.4372
203.196 30.7818
203.209 29.2174
203.222 27.7536
203.235 26.3660
203.248 25.0640
203.261 23.8451
203.275 22.7146
203.288 21.6522
203.301 20.6635
203.314 19.7452
203.327 18.8999
203.340 18.1110
203.354 17.3871
203.367 16.7136
203.380 16.0971
203.390 15.6550
203.400 15.2442
203.410 14.8549
203.420 14.4934
203.430 14.1512
203.440 13.8337
203.450 13.5361
203.460 13.2573
203.470 12.9935
203.480 12.7490
203.490 12.5176
203.500 12.3030
203.510 12.0999
203.520 11.9115
203.530 11.7347
203.540 11.5689
203.551 11.4117
203.561 11.2655
203.581 10.9976
203.601 10.7603
203.621 10.5503
203.641 10.3618
203.661 10.1928
203.681 10.0405
203.701 9.90329
203.726 9.74831
203.751 9.60953
203.776 9.48434
203.801 9.37064
203.827 9.26669
203.852 9.17113
203.877 9.08283
203.902 9.00086
203.952 8.85307
204.002 8.72325
204.052 8.60832
204.103 8.50639
204.140 8.43727
204.178 8.37442
204.216 8.31740
204.253 8.26660
204.291 8.22212
204.328 8.18493
204.366 8.15602
204.404 8.13733
204.441 8.13135
204.479 8.14168
204.498 8.15448
204.517 8.17322
204.536 8.19879
204.554 8.23213
204.573 8.27455
204.592 8.32678
204.611 8.39030
204.630 8.46653
204.648 8.55699
204.667 8.66330
204.686 8.78716
204.705 8.93039
204.722 9.08364
204.740 9.25699
204.758 9.45196
204.775 9.66873
204.793 9.91119
204.810 10.1779
204.828 10.4730
204.845 10.7942
204.863 11.1459
204.881 11.5268
204.898 11.9371
204.916 12.3741
204.933 12.8421
204.951 13.3349
204.968 13.8566
204.986 14.3993
205.016 15.3850
205.046 16.4153
205.106 18.5364
205.144 19.8332
205.182 21.0362
205.209 21.8291
205.237 22.5218
205.253 22.8779
205.270 23.1864
205.285 23.4277
205.299 23.6141
205.312 23.7607
205.327 23.8735
205.342 23.9407
205.350 23.9579
205.377 23.9168
205.394 23.8152
205.410 23.6579
205.426 23.4578
205.442 23.2123
205.460 22.8646
205.479 22.4624
205.510 21.6636
205.542 20.7473
205.568 19.9319
205.593 19.0811
205.645 17.3342
205.691 15.8120
205.713 15.0881
205.736 14.4020
205.759 13.7535
205.782 13.1502
205.805 12.5952
205.828 12.0926
205.843 11.7878
205.858 11.5070
205.873 11.2482
205.888 11.0110
205.903 10.7952
205.918 10.6004
205.933 10.4259
205.948 10.2715
205.963 10.1363
205.978 10.0200
205.993 9.92203
206.008 9.84180
206.023 9.77889
206.038 9.73290
206.053 9.70350
206.068 9.69044
206.083 9.69363
206.098 9.71296
206.113 9.74845
206.128 9.80024
206.143 9.86859
206.158 9.95385
206.173 10.0565
206.188 10.1771
206.203 10.3163
206.218 10.4750
206.233 10.6539
206.248 10.8540
206.263 11.0762
206.278 11.3217
206.293 11.5914
206.308 11.8864
206.325 12.2572
206.342 12.6643
206.360 13.1091
206.377 13.5899
206.394 14.1134
206.411 14.6744
206.428 15.2799
206.445 15.9230
206.462 16.6109
206.480 17.3348
206.497 18.1020
206.514 18.9018
206.548 20.6070
206.582 22.4244
206.605 23.6829
206.663 26.8899
206.691 28.4713
206.720 29.9958
206.751 31.5704
206.783 32.9916
206.801 33.7487
206.820 34.4346
206.851 35.4138
206.869 35.8646
206.887 36.2385
206.895 36.3838
206.900 36.4716
206.918 36.7081
206.935 36.8690
206.966 36.9808
206.997 36.8928
207.028 36.6350
207.065 36.1688
207.083 35.8921
207.101 35.6027
207.118 35.3308
207.135 35.0667
207.152 34.8162
207.169 34.5914
207.185 34.4130
207.200 34.2702
207.216 34.1682
207.231 34.1146
207.247 34.1153
207.263 34.1767
207.278 34.3048
207.294 34.5057
207.309 34.7876
207.325 35.1533
207.340 35.6105
207.356 36.1657
207.371 36.8304
207.387 37.6032
207.402 38.4957
207.418 39.5162
207.432 40.5710
207.446 41.7395
207.460 43.0368
207.474 44.4718
207.488 46.0658
207.503 47.8073
207.517 49.7187
207.531 51.8129
207.545 54.1212
207.559 56.6267
207.573 59.3623
207.587 62.3466
207.601 65.6002
207.615 69.1454
207.630 73.0062
207.644 77.2089
207.651 79.6909
207.659 82.2912
207.667 85.0150
207.675 87.8303
207.683 90.8159
207.690 93.9008
207.698 97.1713
207.706 100.550
207.714 104.130
207.721 107.875
207.729 111.793
207.737 115.837
207.745 120.118
207.752 124.535
207.760 129.210
207.768 134.029
207.776 139.126
207.783 144.448
207.791 150.003
207.799 155.722
207.815 168.062
207.830 181.376
207.846 195.903
207.861 211.522
207.877 228.387
207.892 246.562
207.908 266.236
207.923 287.214
207.939 309.816
207.954 333.798
207.970 359.505
207.985 386.634
208.001 415.362
208.016 445.692
208.032 477.828
208.048 511.334
208.063 546.372
208.079 582.888
208.094 621.057
208.110 660.298
208.141 742.265
208.162 800.525
208.183 860.086
208.225 980.792
208.256 1068.93
208.287 1154.02
208.319 1234.46
208.350 1307.81
208.366 1343.75
208.383 1376.71
208.400 1406.39
208.417 1432.53
208.438 1459.66
208.458 1480.64
208.479 1495.20
208.500 1503.14
208.507 1504.30
208.530 1502.87
208.552 1493.62
208.575 1476.68
208.597 1452.51
208.619 1422.87
208.640 1387.41
208.662 1346.69
208.684 1301.55
208.706 1250.82
208.728 1196.89
208.772 1081.83
208.816 961.816
208.861 842.505
208.895 753.760
208.912 711.079
208.929 669.751
208.946 629.909
208.963 591.665
208.980 555.101
208.997 520.279
209.020 477.729
209.042 438.382
209.053 419.748
209.064 401.863
209.075 384.716
209.086 368.442
209.097 352.731
209.108 337.720
209.119 323.392
209.130 309.849
209.141 296.827
209.152 284.541
209.164 272.747
209.175 261.637
209.186 250.986
209.197 240.877
209.208 231.289
209.219 222.277
209.230 213.658
209.241 205.494
209.252 197.762
209.263 190.507
209.274 183.577
209.285 177.018
209.296 170.812
209.307 164.991
209.319 159.432
209.330 154.218
209.341 149.237
209.352 144.563
209.363 140.096
209.374 135.865
209.385 131.857
209.396 128.090
209.407 124.485
209.418 121.065
209.440 114.762
209.462 109.041
209.485 103.882
209.507 99.1952
209.529 94.9242
209.551 91.0036
209.573 87.4261
209.595 84.1219
209.617 81.0884
209.640 78.2699
209.662 75.6674
209.684 73.2464
209.706 70.9885
209.728 68.8684
209.750 66.8909
209.772 65.0258
209.794 63.2789
209.817 61.6247
209.839 60.0698
209.861 58.5988
209.883 57.2052
209.905 55.8770
209.927 54.6210
209.972 52.2829
210.016 50.1576
210.060 48.2217
210.094 46.8319
210.129 45.5338
210.163 44.3155
210.197 43.1700
210.231 42.0911
210.265 41.0731
210.300 40.1114
210.334 39.2013
210.368 38.3366
210.402 37.5186
210.436 36.7415
210.471 36.0025
210.539 34.6282
210.607 33.3771
210.652 32.6252
210.696 31.9148
210.740 31.2427
210.785 30.6074
210.829 30.0034
210.873 29.4297
210.917 28.8841
210.962 28.3659
211.050 27.3987
211.139 26.5177
211.227 25.7111
211.316 24.9702
211.396 24.3469
211.477 23.7668
211.557 23.2256
211.638 22.7195
211.718 22.2454
211.799 21.8003
211.879 21.3817
211.960 20.9877
212.048 20.5789
212.137 20.1950
212.225 19.8328
212.314 19.4912
212.402 19.1679
212.491 18.8621
212.580 18.5717
212.668 18.2962
212.757 18.0340
212.845 17.7845
212.934 17.5464
213.022 17.3194
213.111 17.1022
213.199 16.8946
213.376 16.5052
213.553 16.1464
213.731 15.8147
213.908 15.5073
214.085 15.2216
214.262 14.9553
214.350 14.8289
214.439 14.7070
214.527 14.5891
214.616 14.4755
214.704 14.3658
214.793 14.2603
214.922 14.1140
214.986 14.0442
215.051 13.9769
215.135 13.8924
215.220 13.8129
215.304 13.7392
215.346 13.7047
215.389 13.6723
215.431 13.6418
215.473 13.6138
215.516 13.5887
215.558 13.5669
215.600 13.5491
215.642 13.5362
215.685 13.5296
215.706 13.5293
215.727 13.5312
215.749 13.5362
215.771 13.5446
215.793 13.5573
215.815 13.5747
215.838 13.5981
215.860 13.6284
215.882 13.6671
215.904 13.7158
215.926 13.7768
215.937 13.8127
215.948 13.8522
215.959 13.8963
215.970 13.9448
215.981 13.9990
215.992 14.0583
216.003 14.1244
216.015 14.1972
216.026 14.2775
216.037 14.3651
216.048 14.4622
216.059 14.5679
216.070 14.6848
216.081 14.8117
216.094 14.9785
216.107 15.1638
216.120 15.3694
216.133 15.5970
216.146 15.8487
216.159 16.1264
216.173 16.4324
216.186 16.7661
216.199 17.1352
216.212 17.5395
216.225 17.9815
216.238 18.4601
216.251 18.9850
216.264 19.5555
216.277 20.1740
216.290 20.8380
216.301 21.4463
216.312 22.0944
216.323 22.7837
216.334 23.5087
216.346 24.2840
216.357 25.1043
216.368 25.9707
216.379 26.8758
216.390 27.8367
216.401 28.8462
216.412 29.9046
216.423 31.0021
216.434 32.1585
216.445 33.3529
216.467 35.8962
216.491 38.8939
216.516 42.0855
216.540 45.4758
216.564 49.0078
216.608 55.7815
216.652 62.6748
216.693 68.7489
216.715 71.9234
216.737 74.8959
216.759 77.6459
216.781 80.1040
216.802 82.1617
216.824 83.8852
216.848 85.4175
216.862 86.1178
216.877 86.6275
216.900 87.0477
216.912 87.0760
216.929 86.8903
216.947 86.4346
216.966 85.6002
216.986 84.4399
217.006 82.9711
217.025 81.2249
217.045 79.2081
217.065 76.9691
217.095 73.1079
217.125 68.8792
217.165 63.0653
217.204 57.1101
217.247 50.6845
217.268 47.5776
217.290 44.5952
217.309 41.9646
217.329 39.4701
217.349 37.0961
217.368 34.8737
217.388 32.7846
217.398 31.8001
217.408 30.8519
217.417 29.9310
217.427 29.0556
217.437 28.2159
217.447 27.4116
217.457 26.6344
217.467 25.8994
217.476 25.1908
217.486 24.5223
217.496 23.8793
217.506 23.2740
217.516 22.6988
217.526 22.1527
217.535 21.6296
217.545 21.1392
217.555 20.6749
217.565 20.2357
217.575 19.8165
217.585 19.4248
217.594 19.0551
217.604 18.7065
217.614 18.3746
217.624 18.0653
217.634 17.7741
217.643 17.5000
217.653 17.2397
217.663 16.9974
217.673 16.7697
217.683 16.5557
217.693 16.3526
217.702 16.1638
217.712 15.9863
217.722 15.8196
217.732 15.6614
217.742 15.5142
217.752 15.3759
217.761 15.2458
217.771 15.1221
217.781 15.0070
217.791 14.8985
217.801 14.7964
217.811 14.6990
217.820 14.6082
217.830 14.5223
217.840 14.4412
217.860 14.2910
217.879 14.1568
217.899 14.0350
217.919 13.9252
217.933 13.8514
217.947 13.7822
217.961 13.7172
217.976 13.6561
218.004 13.5438
218.033 13.4428
218.062 13.3511
218.090 13.2673
218.119 13.1901
218.147 13.1186
218.176 13.0518
218.204 12.9891
218.233 12.9301
218.262 12.8743
218.290 12.8214
218.319 12.7711
218.376 12.6774
218.415 12.6175
218.455 12.5609
218.494 12.5072
218.533 12.4561
218.612 12.3610
218.690 12.2739
218.769 12.1936
218.848 12.1195
218.926 12.0508
219.005 11.9872
219.062 11.9441
219.133 11.8940
219.205 11.8483
219.241 11.8272
219.276 11.8075
219.312 11.7893
219.348 11.7727
219.384 11.7580
219.419 11.7457
219.455 11.7361
219.491 11.7300
219.527 11.7283
219.545 11.7296
219.562 11.7325
219.580 11.7373
219.598 11.7442
219.616 11.7537
219.634 11.7661
219.653 11.7837
219.673 11.8061
219.693 11.8342
219.712 11.8689
219.732 11.9115
219.742 11.9361
219.752 11.9631
219.762 11.9930
219.771 12.0255
219.781 12.0611
219.791 12.1000
219.801 12.1430
219.811 12.1893
219.820 12.2398
219.830 12.2947
219.840 12.3549
219.850 12.4196
219.860 12.4898
219.870 12.5657
219.879 12.6487
219.889 12.7374
219.899 12.8331
219.909 12.9362
219.919 13.0483
219.929 13.1677
219.938 13.2959
219.948 13.4333
219.960 13.6103
219.971 13.8003
219.983 14.0058
219.995 14.2276
220.006 14.4687
220.018 14.7259
220.030 15.0020
220.041 15.2979
220.053 15.6173
220.064 15.9555
220.076 16.3160
220.088 16.6995
220.099 17.1067
220.111 17.5381
220.122 17.9945
220.134 18.4761
220.144 18.9075
220.154 19.3531
220.173 20.3004
220.193 21.3276
220.213 22.4235
220.232 23.5969
220.252 24.8324
220.272 26.1375
220.291 27.4927
220.331 30.3465
220.370 33.3124
220.409 36.2875
220.448 39.1529
220.473 40.8604
220.498 42.4387
220.515 43.3717
220.531 44.2298
220.550 45.1667
220.570 45.9638
220.589 46.6036
220.608 47.0954
220.624 47.3770
220.639 47.5581
220.650 47.6259
220.670 47.6139
220.688 47.4566
220.705 47.1639
220.725 46.6858
220.745 46.0564
220.764 45.2784
220.784 44.3707
220.804 43.3420
220.823 42.2063
220.841 41.0880
220.859 39.9110
220.895 37.4033
220.973 31.5990
221.003 29.3916
221.034 27.2793
221.049 26.2630
221.064 25.2865
221.079 24.3396
221.094 23.4369
221.114 22.3190
221.134 21.2760
221.153 20.2988
221.163 19.8393
221.173 19.3974
221.183 18.9688
221.193 18.5620
221.202 18.1722
221.212 17.7994
221.222 17.4395
221.232 17.0995
221.242 16.7754
221.252 16.4667
221.267 16.0174
221.282 15.6025
221.297 15.2203
221.312 14.8711
221.327 14.5485
221.343 14.2549
221.358 13.9846
221.373 13.7395
221.388 13.5144
221.403 13.3093
221.418 13.1228
221.434 12.9542
221.449 12.7999
221.464 12.6605
221.479 12.5330
221.494 12.4177
221.505 12.3417
221.516 12.2712
221.526 12.2052
221.537 12.1433
221.548 12.0853
221.558 12.0309
221.569 11.9797
221.580 11.9317
221.591 11.8860
221.601 11.8434
221.623 11.7652
221.644 11.6952
221.666 11.6323
221.687 11.5751
221.708 11.5233
221.730 11.4758
221.751 11.4321
221.773 11.3917
221.794 11.3540
221.815 11.3187
221.837 11.2855
221.873 11.2342
221.908 11.1871
221.944 11.1434
221.980 11.1026
222.015 11.0644
222.051 11.0282
222.087 10.9939
222.122 10.9614
222.194 10.9002
222.265 10.8438
222.337 10.7912
222.408 10.7418
222.501 10.6815
222.593 10.6249
222.686 10.5713
222.779 10.5203
222.872 10.4714
222.965 10.4243
223.057 10.3787
223.150 10.3346
223.336 10.2496
223.521 10.1683
223.707 10.0897
223.893 10.0132
224.093 9.93262
224.292 9.85342
224.492 9.77517
224.692 9.69758
224.892 9.62025
224.992 9.58160
225.092 9.54297
225.192 9.50427
225.292 9.46556
225.392 9.42679
225.492 9.38796
225.606 9.34355
225.720 9.29916
225.834 9.25491
225.891 9.23289
225.948 9.21100
226.027 9.18113
226.106 9.15177
226.184 9.12308
226.263 9.09535
226.302 9.08196
226.341 9.06898
226.380 9.05648
226.420 9.04460
226.459 9.03339
226.498 9.02304
226.537 9.01368
226.577 9.00557
226.627 8.99745
226.677 8.99257
226.702 8.99167
226.727 8.99204
226.752 8.99389
226.777 8.99750
226.802 9.00323
226.827 9.01151
226.852 9.02288
226.876 9.03794
226.901 9.05769
226.926 9.08313
226.951 9.11562
226.976 9.15668
226.996 9.19666
227.016 9.24436
227.035 9.30173
227.055 9.36991
227.065 9.40918
227.075 9.45163
227.084 9.49793
227.094 9.54842
227.104 9.60345
227.114 9.66339
227.124 9.72866
227.133 9.79968
227.143 9.87775
227.153 9.96180
227.163 10.0531
227.173 10.1523
227.183 10.2610
227.192 10.3777
227.202 10.5042
227.212 10.6412
227.222 10.7910
227.232 10.9513
227.242 11.1246
227.251 11.3115
227.261 11.5132
227.271 11.7305
227.281 11.9645
227.291 12.2161
227.301 12.5152
227.312 12.8355
227.323 13.1812
227.333 13.5537
227.344 13.9549
227.355 14.3861
227.366 14.8493
227.376 15.3459
227.387 15.8778
227.398 16.4468
227.408 17.0544
227.419 17.7025
227.430 18.3928
227.440 19.1268
227.451 19.9064
227.462 20.7330
227.472 21.5410
227.482 22.3829
227.491 23.2677
227.501 24.1963
227.511 25.1696
227.521 26.1884
227.531 27.2533
227.540 28.3648
227.560 30.7418
227.580 33.2969
227.599 36.0404
227.619 38.9683
227.632 41.0727
227.646 43.2569
227.672 47.8481
227.699 52.7007
227.726 57.7419
227.746 61.5558
227.765 65.3967
227.804 73.0836
227.840 79.8846
227.858 83.1464
227.876 86.2518
227.896 89.4925
227.915 92.4750
227.933 94.9439
227.960 98.1741
227.979 100.128
227.999 101.707
228.016 102.748
228.039 103.684
228.050 103.937
228.067 104.050
228.083 103.870
228.099 103.426
228.113 102.759
228.128 101.867
228.143 100.747
228.158 99.4232
228.178 97.2946
228.198 94.8241
228.228 90.6453
228.258 85.9439
228.287 80.8373
228.317 75.4585
228.342 70.6875
228.368 65.8897
228.394 61.1382
228.419 56.4976
228.449 51.3257
228.464 48.8546
228.479 46.4636
228.493 44.1588
228.508 41.9447
228.523 39.8252
228.538 37.8029
228.558 35.2026
228.568 33.9722
228.578 32.7882
228.588 31.6506
228.598 30.5588
228.608 29.5125
228.619 28.5110
228.629 27.5536
228.639 26.6393
228.649 25.7674
228.659 24.9368
228.669 24.1463
228.679 23.3949
228.689 22.6814
228.699 22.0045
228.714 21.0700
228.729 20.2139
228.744 19.4255
228.759 18.7006
228.774 18.0308
228.788 17.4211
228.803 16.8629
228.818 16.3523
228.833 15.8826
228.848 15.4567
228.862 15.0679
228.877 14.7131
228.892 14.3873
228.907 14.0920
228.922 13.8225
228.937 13.5762
228.947 13.4204
228.957 13.2738
228.967 13.1358
228.977 13.0058
228.987 12.8832
228.997 12.7675
229.007 12.6584
229.017 12.5552
229.027 12.4576
229.038 12.3653
229.058 12.1948
229.078 12.0411
229.098 11.9020
229.118 11.7754
229.139 11.6598
229.159 11.5537
229.179 11.4559
229.199 11.3654
229.219 11.2812
229.240 11.2026
229.260 11.1290
229.289 11.0287
229.319 10.9368
229.349 10.8516
229.378 10.7726
229.408 10.6986
229.438 10.6296
229.467 10.5646
229.497 10.5033
229.527 10.4452
229.556 10.3902
229.615 10.2881
229.675 10.1952
229.734 10.1103
229.793 10.0319
229.853 9.95930
229.912 9.89175
229.971 9.82873
230.030 9.76951
230.090 9.71377
230.149 9.66113
230.208 9.61136
230.327 9.51893
230.445 9.43485
230.564 9.35766
230.682 9.28628
230.769 9.23745
230.855 9.19102
231.027 9.10430
231.146 9.04881
231.264 8.99633
231.383 8.94651
231.501 8.89919
231.738 8.81122
231.975 8.73137
232.213 8.65901
232.450 8.59399
232.687 8.53647
232.924 8.48696
233.161 8.44628
233.279 8.42963
233.398 8.41571
233.517 8.40473
233.635 8.39699
233.754 8.39277
233.872 8.39243
233.991 8.39639
234.109 8.40511
234.228 8.41913
234.346 8.43903
234.465 8.46553
234.583 8.49939
234.702 8.54156
234.820 8.59314
234.939 8.65549
235.058 8.73001
235.176 8.81857
235.295 8.92304
235.413 9.04597
235.532 9.18992
235.650 9.35847
235.769 9.55529
235.887 9.78547
236.006 10.0544
236.065 10.2057
236.125 10.3694
236.184 10.5468
236.243 10.7386
236.302 10.9470
236.362 11.1731
236.421 11.4186
236.480 11.6850
236.539 11.9754
236.599 12.2910
236.658 12.6358
236.717 13.0117
236.793 13.5424
236.868 14.1378
236.944 14.8094
237.019 15.5674
237.094 16.4280
237.170 17.4062
237.208 17.9462
237.245 18.5241
237.283 19.1433
237.321 19.8075
237.380 20.9537
237.439 22.2409
237.499 23.6918
237.528 24.4856
237.558 25.3311
237.587 26.2357
237.617 27.1984
237.647 28.2310
237.676 29.3328
237.706 30.5183
237.736 31.7871
237.765 33.1519
237.795 34.6226
237.818 35.8402
237.841 37.1338
237.864 38.5098
237.886 39.9757
237.909 41.5395
237.932 43.2102
237.955 44.9980
237.978 46.9144
238.001 48.9722
238.024 51.1859
238.047 53.5718
238.070 56.1484
238.093 58.9367
238.115 61.9603
238.138 65.2459
238.161 68.8239
238.176 71.3251
238.191 73.9565
238.206 76.7455
238.221 79.7041
238.235 82.8452
238.250 86.1825
238.265 89.7311
238.280 93.5069
238.295 97.5552
238.309 101.840
238.324 106.408
238.339 111.280
238.354 116.477
238.369 122.025
238.383 127.948
238.398 134.273
238.413 141.075
238.428 148.293
238.443 156.001
238.458 164.231
238.472 173.079
238.487 182.460
238.502 192.467
238.517 203.136
238.532 214.584
238.547 226.695
238.561 239.580
238.576 253.276
238.591 267.922
238.606 283.358
238.621 299.714
238.635 317.022
238.656 342.239
238.676 369.360
238.696 398.443
238.716 429.534
238.736 462.661
238.757 497.833
238.777 535.038
238.797 574.236
238.827 635.346
238.856 700.072
238.886 768.149
238.916 838.961
239.034 1132.61
239.064 1202.92
239.093 1269.35
239.123 1330.86
239.152 1386.23
239.187 1441.49
239.204 1464.88
239.221 1485.10
239.238 1502.23
239.255 1515.95
239.272 1526.31
239.290 1533.13
239.300 1535.57
239.311 1536.68
239.328 1535.59
239.345 1530.93
239.362 1522.75
239.379 1511.21
239.397 1496.27
239.414 1478.23
239.448 1433.09
239.476 1388.73
239.503 1338.45
239.531 1282.84
239.559 1223.31
239.613 1097.19
239.668 966.836
239.698 896.264
239.727 827.309
239.757 760.750
239.787 697.425
239.814 642.085
239.842 590.160
239.869 541.444
239.896 496.375
239.910 475.068
239.924 454.633
239.937 435.060
239.951 416.470
239.965 398.575
239.978 381.620
239.992 365.335
240.006 349.937
240.019 335.177
240.033 321.146
240.047 307.817
240.060 295.257
240.074 283.252
240.088 271.951
240.101 261.162
240.115 251.015
240.129 241.335
240.142 232.236
240.156 223.560
240.170 215.408
240.183 207.635
240.197 200.332
240.211 193.369
240.224 186.825
240.244 177.868
240.264 169.591
240.284 161.937
240.304 154.887
240.324 148.320
240.343 142.228
240.363 136.570
240.383 131.332
240.403 126.428
240.423 121.854
240.443 117.581
240.463 113.601
240.483 109.853
240.502 106.352
240.522 103.044
240.542 99.9449
240.569 95.9442
240.597 92.2582
240.624 88.8402
240.651 85.6631
240.679 82.6924
240.706 79.9289
240.733 77.3430
240.761 74.9185
240.788 72.6331
240.815 70.4907
240.843 68.4715
240.870 66.5655
240.897 64.7637
240.925 63.0580
240.952 61.4412
240.979 59.9068
241.034 57.0571
241.088 54.4781
241.143 52.1262
241.198 49.9813
241.252 48.0113
241.307 46.2030
241.362 44.5351
241.416 42.9923
241.468 41.6225
241.521 40.3452
241.573 39.1518
241.625 38.0366
241.677 36.9885
241.729 36.0055
241.781 35.0785
241.834 34.2062
241.886 33.3811
241.938 32.6024
241.990 31.8637
242.042 31.1646
242.094 30.4998
242.146 29.8691
242.199 29.2679
242.251 28.6962
242.305 28.1244
242.360 27.5806
242.469 26.5661
242.579 25.6393
242.688 24.7901
242.797 24.0076
242.906 23.2847
243.016 22.6150
243.070 22.2987
243.125 21.9938
243.204 21.5694
243.284 21.1678
243.324 20.9755
243.363 20.7899
243.403 20.6110
243.443 20.4400
243.473 20.3174
243.502 20.2010
243.532 20.0916
243.562 19.9910
243.592 19.9010
243.622 19.8240
243.637 19.7914
243.651 19.7634
243.666 19.7403
243.681 19.7228
243.696 19.7116
243.711 19.7072
243.726 19.7106
243.741 19.7224
243.756 19.7435
243.771 19.7750
243.786 19.8179
243.800 19.8732
243.815 19.9422
243.830 20.0261
243.845 20.1263
243.860 20.2441
243.875 20.3809
243.890 20.5383
243.905 20.7178
243.920 20.9210
243.933 21.1300
243.947 21.3617
243.961 21.6172
243.974 21.8955
243.988 22.2020
244.002 22.5358
244.015 22.8980
244.029 23.2866
244.043 23.7082
244.056 24.1608
244.070 24.6452
244.084 25.1579
244.097 25.7067
244.111 26.2840
244.125 26.8980
244.138 27.5396
244.155 28.3449
244.171 29.1882
244.187 30.0783
244.203 31.0020
244.235 32.9609
244.267 35.0295
244.317 38.3610
244.367 41.7002
244.394 43.4722
244.421 45.1522
244.449 46.7045
244.476 48.0947
244.492 48.8298
244.508 49.4866
244.531 50.2679
244.558 50.9995
244.574 51.2934
244.589 51.5010
244.600 51.5963
244.615 51.6524
244.631 51.6196
244.648 51.4808
244.665 51.2375
244.683 50.8585
244.701 50.3667
244.720 49.7624
244.738 49.0588
244.764 47.8624
244.791 46.4963
244.827 44.3843
244.864 42.0857
244.914 38.7774
244.963 35.4625
244.982 34.2723
245.000 33.1158
245.018 31.9865
245.036 30.9018
245.055 29.8540
245.073 28.8583
245.091 27.9063
245.109 27.0106
245.122 26.4257
245.134 25.8700
245.147 25.3348
245.159 24.8288
245.172 24.3436
245.184 23.8869
245.196 23.4544
245.209 23.0459
245.221 22.6580
245.234 22.2965
245.246 21.9551
245.259 21.6389
245.271 21.3422
245.283 21.0695
245.296 20.8177
245.308 20.5865
245.317 20.4280
245.327 20.2821
245.336 20.1467
245.345 20.0219
245.354 19.9062
245.363 19.8022
245.372 19.7085
245.381 19.6250
245.390 19.5510
245.400 19.4882
245.409 19.4357
245.418 19.3937
245.427 19.3621
245.436 19.3412
245.445 19.3312
245.454 19.3322
245.463 19.3447
245.472 19.3687
245.482 19.4047
245.491 19.4528
245.500 19.5144
245.509 19.5884
245.518 19.6760
245.527 19.7776
245.536 19.8953
245.545 20.0269
245.555 20.1744
245.564 20.3385
245.573 20.5198
245.582 20.7191
245.591 20.9372
245.600 21.1749
245.613 21.5595
245.627 21.9908
245.640 22.4717
245.653 23.0013
245.666 23.5908
245.680 24.2398
245.693 24.9518
245.706 25.7242
245.720 26.5723
245.733 27.4940
245.746 28.4930
245.759 29.5643
245.773 30.7275
245.786 31.9683
245.799 33.3086
245.812 34.7311
245.831 36.8597
245.849 39.1622
245.867 41.6679
245.885 44.3521
245.904 47.2448
245.922 50.3128
245.940 53.5860
245.958 57.0221
245.973 59.9832
245.988 63.0332
246.018 69.4261
246.048 76.1654
246.078 83.1077
246.114 91.7441
246.151 100.292
246.187 108.476
246.205 112.331
246.224 115.989
246.230 117.260
246.249 120.610
246.267 123.680
246.285 126.423
246.303 128.831
246.328 131.536
246.346 133.026
246.362 134.047
246.378 134.738
246.390 135.031
246.405 135.149
246.423 134.915
246.441 134.270
246.461 133.080
246.481 131.418
246.501 129.292
246.521 126.737
246.541 123.786
246.561 120.495
246.593 114.428
246.626 107.710
246.666 98.9003
246.706 89.8031
246.753 79.0945
246.777 73.9007
246.800 68.8796
246.820 64.7893
246.840 60.8905
246.860 57.1595
246.880 53.6453
246.900 50.3206
246.920 47.2231
246.940 44.3231
246.950 42.9529
246.960 41.6483
246.971 40.2710
246.982 38.9547
246.993 37.6985
247.004 36.5010
247.014 35.3610
247.025 34.2769
247.036 33.2473
247.047 32.2704
247.058 31.3446
247.069 30.4680
247.080 29.6390
247.091 28.8555
247.102 28.1158
247.113 27.4181
247.123 26.7604
247.134 26.1463
247.144 25.6097
247.154 25.1023
247.164 24.6227
247.174 24.1696
247.184 23.7418
247.194 23.3378
247.204 22.9566
247.214 22.6004
247.224 22.2607
247.234 21.9403
247.244 21.6381
247.254 21.3529
247.264 21.0839
247.274 20.8300
247.284 20.5904
247.294 20.3663
247.304 20.1525
247.314 19.9505
247.324 19.7596
247.334 19.5790
247.344 19.4082
247.354 19.2464
247.364 19.0931
247.374 18.9491
247.384 18.8110
247.394 18.6799
247.414 18.4378
247.434 18.2170
247.454 18.0169
247.467 17.8892
247.481 17.7696
247.495 17.6566
247.508 17.5496
247.535 17.3517
247.563 17.1721
247.590 17.0075
247.617 16.8565
247.644 16.7168
247.672 16.5866
247.699 16.4643
247.726 16.3497
247.753 16.2414
247.780 16.1388
247.808 16.0410
247.835 15.9480
247.889 15.7740
247.929 15.6550
247.969 15.5428
248.009 15.4361
248.049 15.3349
248.089 15.2381
248.129 15.1459
248.169 15.0575
248.209 14.9727
248.249 14.8909
248.289 14.8124
248.369 14.6633
248.449 14.5241
248.528 14.3939
248.586 14.3041
248.645 14.2184
248.714 14.1220
248.748 14.0759
248.783 14.0315
248.817 13.9887
248.852 13.9477
248.886 13.9088
248.920 13.8724
248.955 13.8388
248.989 13.8087
249.024 13.7832
249.058 13.7634
249.076 13.7562
249.093 13.7512
249.110 13.7487
249.127 13.7489
249.145 13.7525
249.162 13.7597
249.179 13.7713
249.196 13.7877
249.216 13.8140
249.236 13.8491
249.256 13.8946
249.266 13.9218
249.276 13.9519
249.286 13.9857
249.296 14.0234
249.306 14.0650
249.316 14.1110
249.326 14.1616
249.336 14.2171
249.346 14.2780
249.356 14.3438
249.366 14.4163
249.376 14.4953
249.386 14.5811
249.396 14.6742
249.406 14.7750
249.416 14.8840
249.426 15.0018
249.436 15.1273
249.446 15.2638
249.456 15.4105
249.466 15.5680
249.476 15.7350
249.486 15.9154
249.496 16.1083
249.506 16.3142
249.516 16.5314
249.527 16.7866
249.538 17.0593
249.549 17.3503
249.559 17.6603
249.570 17.9900
249.581 18.3401
249.592 18.7113
249.603 19.1005
249.614 19.5155
249.625 19.9534
249.636 20.4147
249.647 20.8998
249.657 21.4090
249.668 21.9428
249.679 22.5014
249.690 23.0793
249.709 24.1615
249.728 25.3198
249.747 26.5530
249.766 27.8516
249.785 29.2254
249.805 30.6632
249.843 33.6961
249.883 37.0475
249.922 40.4749
249.962 43.8890
250.002 47.1427
250.026 48.9321
250.050 50.5907
250.070 51.8741
250.089 53.0239
250.104 53.7738
250.124 54.6770
250.144 55.4147
250.158 55.8327
250.172 56.1622
250.186 56.4089
250.200 56.5626
250.223 56.6171
250.240 56.5031
250.257 56.2588
250.277 55.7968
250.297 55.1573
250.317 54.3495
250.338 53.3897
250.358 52.2814
250.378 51.0497
250.397 49.8221
250.415 48.5196
250.452 45.7216
250.492 42.4396
250.533 39.0902
250.564 36.5263
250.596 34.0363
250.611 32.8279
250.627 31.6597
250.643 30.5203
250.658 29.4273
250.678 28.0673
250.699 26.7815
250.719 25.5729
250.739 24.4481
250.749 23.9099
250.760 23.3965
250.770 22.9024
250.780 22.4276
250.790 21.9673
250.800 21.5303
250.810 21.1117
250.820 20.7111
250.836 20.1233
250.852 19.5765
250.867 19.0690
250.883 18.6019
250.899 18.1672
250.914 17.7686
250.930 17.3989
250.946 17.0610
250.961 16.7486
250.977 16.4636
250.993 16.2007
251.008 15.9614
251.024 15.7408
251.039 15.5402
251.055 15.3554
251.071 15.1874
251.082 15.0765
251.093 14.9732
251.104 14.8751
251.115 14.7837
251.126 14.6969
251.137 14.6159
251.148 14.5389
251.159 14.4668
251.170 14.3982
251.181 14.3340
251.192 14.2727
251.203 14.2151
251.214 14.1601
251.225 14.1084
251.247 14.0124
251.270 13.9249
251.292 13.8451
251.314 13.7719
251.336 13.7044
251.358 13.6419
251.380 13.5836
251.402 13.5291
251.424 13.4781
251.444 13.4335
251.465 13.3914
251.505 13.3123
251.546 13.2396
251.586 13.1721
251.627 13.1089
251.667 13.0494
251.708 12.9932
251.748 12.9399
251.789 12.8890
251.829 12.8403
251.910 12.7488
251.991 12.6636
252.072 12.5840
252.138 12.5222
252.204 12.4631
252.271 12.4064
252.337 12.3517
252.403 12.2989
252.469 12.2478
252.535 12.1981
252.602 12.1499
252.712 12.0722
252.822 11.9976
252.933 11.9258
252.988 11.8908
253.043 11.8565
253.098 11.8229
253.154 11.7899
253.209 11.7575
253.264 11.7259
253.319 11.6951
253.374 11.6651
253.430 11.6362
253.485 11.6084
253.547 11.5787
253.579 11.5647
253.610 11.5514
253.641 11.5389
253.672 11.5274
253.704 11.5171
253.735 11.5082
253.766 11.5012
253.798 11.4965
253.829 11.4946
253.860 11.4966
253.876 11.4992
253.891 11.5032
253.907 11.5088
253.923 11.5161
253.938 11.5255
253.954 11.5370
253.970 11.5511
253.985 11.5680
254.005 11.5950
254.026 11.6284
254.046 11.6695
254.056 11.6932
254.066 11.7193
254.076 11.7482
254.086 11.7796
254.097 11.8140
254.107 11.8516
254.117 11.8927
254.127 11.9374
254.137 11.9862
254.147 12.0392
254.157 12.0973
254.167 12.1598
254.177 12.2275
254.188 12.3007
254.198 12.3807
254.208 12.4663
254.218 12.5586
254.228 12.6580
254.238 12.7662
254.248 12.8813
254.258 13.0050
254.269 13.1376
254.279 13.2798
254.289 13.4319
254.299 13.5946
254.309 13.7684
254.320 13.9728
254.331 14.1900
254.342 14.4246
254.353 14.6732
254.364 14.9411
254.375 15.2241
254.386 15.5255
254.397 15.8459
254.408 16.1893
254.419 16.5502
254.430 16.9359
254.441 17.3401
254.453 17.7709
254.464 18.2211
254.475 18.6951
254.486 19.1935
254.496 19.6778
254.506 20.1788
254.526 21.2457
254.546 22.4065
254.567 23.6509
254.587 24.9908
254.607 26.4120
254.627 27.9260
254.648 29.5142
254.668 31.1869
254.688 32.9213
254.728 36.5656
254.769 40.3838
254.809 44.2550
254.857 48.7609
254.898 52.3382
254.916 53.8604
254.934 55.2979
254.952 56.6037
254.970 57.8009
255.000 59.5580
255.025 60.7403
255.041 61.3932
255.058 61.9208
255.077 62.3814
255.097 62.6652
255.100 62.6973
255.110 62.7558
255.119 62.7692
255.139 62.6612
255.146 62.5769
255.162 62.2960
255.178 61.8967
255.200 61.1710
255.230 59.8424
255.258 58.3098
255.283 56.6515
255.303 55.2390
255.323 53.7237
255.348 51.6253
255.374 49.4208
255.429 44.3688
255.481 39.6747
255.506 37.3836
255.532 35.1581
255.557 33.0095
255.583 30.9705
255.608 29.0450
255.621 28.1243
255.634 27.2422
255.646 26.3854
255.659 25.5614
255.672 24.7705
255.685 24.0187
255.698 23.2939
255.710 22.6074
255.723 21.9479
255.736 21.3254
255.749 20.7294
255.761 20.1642
255.774 19.6292
255.787 19.1274
255.800 18.6498
255.812 18.2031
255.825 17.7792
255.838 17.3837
255.852 16.9754
255.866 16.5976
255.880 16.2432
255.894 15.9159
255.908 15.6098
255.922 15.3277
255.935 15.0661
255.949 14.8237
255.963 14.5976
255.977 14.3899
255.991 14.1978
256.005 14.0201
256.019 13.8547
256.033 13.7028
256.047 13.5623
256.061 13.4324
256.074 13.3213
256.086 13.2178
256.099 13.1213
256.112 13.0320
256.125 12.9479
256.137 12.8699
256.150 12.7963
256.163 12.7279
256.176 12.6632
256.188 12.6024
256.201 12.5453
256.214 12.4919
256.227 12.4410
256.239 12.3934
256.265 12.3051
256.291 12.2251
256.316 12.1527
256.342 12.0865
256.367 12.0256
256.393 11.9688
256.418 11.9162
256.444 11.8669
256.469 11.8205
256.513 11.7461
256.557 11.6778
256.601 11.6146
256.646 11.5557
256.690 11.5004
256.734 11.4482
256.778 11.3987
256.822 11.3516
256.866 11.3066
256.910 11.2635
256.954 11.2221
256.998 11.1822
257.087 11.1065
257.175 11.0354
257.226 10.9960
257.277 10.9577
257.379 10.8844
257.481 10.8148
257.532 10.7813
257.583 10.7485
257.634 10.7165
257.685 10.6852
257.736 10.6547
257.787 10.6249
257.838 10.5958
257.889 10.5675
257.941 10.5401
257.992 10.5135
258.061 10.4789
258.131 10.4464
258.201 10.4164
258.235 10.4025
258.270 10.3895
258.305 10.3774
258.340 10.3664
258.375 10.3567
258.409 10.3483
258.444 10.3416
258.479 10.3367
258.514 10.3340
258.549 10.3338
258.574 10.3355
258.600 10.3391
258.625 10.3447
258.651 10.3528
258.676 10.3638
258.702 10.3780
258.727 10.3961
258.753 10.4188
258.778 10.4472
258.804 10.4820
258.829 10.5249
258.855 10.5774
258.881 10.6420
258.906 10.7206
258.919 10.7665
258.932 10.8168
258.944 10.8729
258.957 10.9344
258.973 11.0229
258.990 11.1229
259.006 11.2371
259.022 11.3660
259.038 11.5133
259.055 11.6793
259.071 11.8686
259.087 12.0818
259.103 12.3245
259.120 12.5972
259.136 12.9070
259.152 13.2542
259.168 13.6475
259.185 14.0870
259.193 14.3265
259.201 14.5800
259.209 14.8483
259.217 15.1322
259.230 15.6141
259.243 16.1396
259.255 16.7120
259.268 17.3296
259.281 18.0054
259.294 18.7325
259.306 19.5259
259.319 20.3769
259.332 21.3027
259.345 22.3007
259.357 23.3748
259.370 24.5195
259.383 25.7566
259.396 27.0705
259.408 28.4856
259.421 29.9831
259.432 31.2940
259.442 32.6591
259.453 34.1064
259.463 35.6096
259.473 37.1992
259.484 38.8460
259.494 40.5827
259.505 42.3770
259.526 46.2083
259.547 50.3422
259.567 54.7766
259.588 59.5051
259.614 65.6804
259.639 72.2207
259.665 79.1053
259.690 86.2772
259.709 91.6210
259.735 99.1478
259.760 106.715
259.811 121.655
259.837 128.836
259.862 135.624
259.888 141.958
259.913 147.678
259.931 151.190
259.948 154.350
259.974 158.288
260.000 161.439
260.018 163.028
260.037 164.105
260.050 164.566
260.060 164.734
260.082 164.562
260.103 163.674
260.119 162.621
260.134 161.235
260.149 159.523
260.164 157.511
260.192 153.081
260.219 147.773
260.250 141.076
260.280 133.641
260.313 124.868
260.346 115.705
260.407 98.5907
260.437 90.1947
260.468 82.1212
260.483 78.2160
260.498 74.4226
260.513 70.7505
260.528 67.2304
260.544 63.8221
260.559 60.5542
260.574 57.4305
260.589 54.4724
260.602 52.1338
260.614 49.9126
260.626 47.7894
260.639 45.7634
260.651 43.8180
260.664 41.9831
260.676 40.2406
260.689 38.5886
260.701 37.0123
260.713 35.5344
260.726 34.1392
260.738 32.8238
260.751 31.5852
260.763 30.4203
260.775 29.3260
260.788 28.2991
260.803 27.1277
260.818 26.0469
260.833 25.0511
260.849 24.1404
260.864 23.2973
260.879 22.5228
260.894 21.8117
260.909 21.1634
260.924 20.5646
260.940 20.0155
260.955 19.5119
260.970 19.0528
260.985 18.6287
261.000 18.2393
261.016 17.8815
261.031 17.5546
261.042 17.3308
261.053 17.1219
261.064 16.9231
261.075 16.7372
261.086 16.5600
261.097 16.3940
261.108 16.2369
261.119 16.0881
261.130 15.9457
261.141 15.8118
261.163 15.5625
261.185 15.3364
261.207 15.1315
261.229 14.9431
261.251 14.7700
261.274 14.6103
261.296 14.4629
261.318 14.3251
261.340 14.1964
261.362 14.0759
261.384 13.9630
261.414 13.8175
261.445 13.6830
261.475 13.5574
261.505 13.4403
261.536 13.3301
261.566 13.2268
261.596 13.1290
261.627 13.0367
261.657 12.9490
261.687 12.8659
261.718 12.7865
261.748 12.7111
261.809 12.5700
261.869 12.4405
261.919 12.3420
261.969 12.2496
262.019 12.1625
262.068 12.0804
262.118 12.0025
262.168 11.9286
262.217 11.8582
262.267 11.7913
262.317 11.7271
262.366 11.6658
262.466 11.5505
262.565 11.4436
262.664 11.3440
262.730 11.2811
262.797 11.2207
262.863 11.1626
262.929 11.1066
262.995 11.0525
263.061 11.0001
263.128 10.9493
263.194 10.9000
263.304 10.8208
263.415 10.7449
263.525 10.6721
263.580 10.6368
263.635 10.6022
263.691 10.5683
263.746 10.5351
263.801 10.5026
263.856 10.4708
263.911 10.4399
263.967 10.4098
264.022 10.3808
264.077 10.3529
264.138 10.3237
264.198 10.2964
264.259 10.2716
264.289 10.2603
264.320 10.2500
264.350 10.2407
264.380 10.2327
264.411 10.2262
264.441 10.2215
264.471 10.2190
264.502 10.2194
264.532 10.2231
264.562 10.2313
264.585 10.2406
264.607 10.2534
264.629 10.2704
264.651 10.2922
264.673 10.3201
264.695 10.3551
264.717 10.3986
264.728 10.4240
264.739 10.4521
264.750 10.4834
264.761 10.5178
264.772 10.5561
264.783 10.5980
264.794 10.6445
264.805 10.6952
264.816 10.7510
264.827 10.8121
264.838 10.8797
264.849 10.9531
264.861 11.0341
264.872 11.1219
264.883 11.2186
264.894 11.3231
264.905 11.4370
264.916 11.5608
264.931 11.7498
264.946 11.9613
264.961 12.1977
264.976 12.4593
264.992 12.7522
265.007 13.0773
265.022 13.4373
265.037 13.8324
265.052 14.2707
265.067 14.7527
265.083 15.2814
265.098 15.8562
265.113 16.4876
265.128 17.1752
265.143 17.9220
265.158 18.7254
265.168 19.2752
265.178 19.8521
265.188 20.4569
265.197 21.0835
265.207 21.7455
265.216 22.4298
265.236 23.8950
265.255 25.4823
265.274 27.1935
265.294 29.0293
265.313 30.9889
265.328 32.6179
265.343 34.3204
265.359 36.0937
265.374 37.9346
265.404 41.8017
265.434 45.8662
265.459 49.3257
265.484 52.8410
265.534 59.9155
265.564 64.1529
265.594 68.1925
265.625 71.9679
265.655 75.3634
265.677 77.5593
265.692 78.9140
265.708 80.1241
265.723 81.1975
265.738 82.1129
265.756 82.9994
265.774 83.6734
265.800 84.1871
265.817 84.2591
265.834 84.1228
265.850 83.7908
265.873 82.9998
265.891 82.1367
265.908 81.0704
265.931 79.3897
265.954 77.4124
265.977 75.1525
266.000 72.6526
266.039 67.8981
266.078 62.7397
266.124 56.5084
266.170 50.2797
266.201 46.1549
266.232 42.2198
266.248 40.3283
266.263 38.4986
266.279 36.7351
266.294 35.0517
266.317 32.6953
266.329 31.5820
266.340 30.5089
266.352 29.4674
266.363 28.4756
266.374 27.5242
266.386 26.6129
266.397 25.7338
266.409 24.9017
266.420 24.1081
266.432 23.3523
266.443 22.6334
266.454 21.9506
266.466 21.3028
266.477 20.6889
266.494 19.8489
266.510 19.0803
266.527 18.3745
266.544 17.7276
266.560 17.1361
266.577 16.5964
266.593 16.1048
266.610 15.6579
266.627 15.2501
266.643 14.8830
266.660 14.5510
266.677 14.2513
266.693 13.9813
266.710 13.7385
266.726 13.5206
266.743 13.3257
266.760 13.1509
266.776 12.9966
266.793 12.8604
266.809 12.7410
266.821 12.6676
266.832 12.6020
266.844 12.5434
266.855 12.4915
266.867 12.4458
266.878 12.4071
266.889 12.3749
266.901 12.3491
266.912 12.3297
266.924 12.3171
266.935 12.3112
266.947 12.3122
266.958 12.3205
266.969 12.3361
266.981 12.3595
266.992 12.3911
267.004 12.4317
267.015 12.4810
267.027 12.5400
267.038 12.6093
267.049 12.6903
267.061 12.7824
267.072 12.8870
267.084 13.0050
267.095 13.1386
267.107 13.2865
267.118 13.4509
267.129 13.6329
267.141 13.8338
267.152 14.0549
267.164 14.2975
267.175 14.5632
267.186 14.8560
267.198 15.1726
267.209 15.5170
267.221 15.8910
267.232 16.3001
267.244 16.7389
267.255 17.2129
267.266 17.7240
267.278 18.2792
267.289 18.8709
267.301 19.5058
267.312 20.1860
267.324 20.9201
267.335 21.6975
267.346 22.5264
267.358 23.4089
267.369 24.3553
267.381 25.3512
267.392 26.4064
267.403 27.5226
267.415 28.7121
267.426 29.9557
267.438 31.2649
267.449 32.6408
267.461 34.0974
267.472 35.6102
267.483 37.1921
267.495 38.8434
267.518 42.3545
267.540 46.1405
267.567 50.9683
267.594 56.1472
267.621 61.6426
267.648 67.4078
267.671 72.4658
267.694 77.6108
267.717 82.8404
267.740 88.0564
267.779 96.9468
267.819 105.361
267.852 111.882
267.875 115.929
267.898 119.572
267.925 123.291
267.947 125.875
267.970 127.917
267.990 129.223
268.005 129.897
268.020 130.309
268.035 130.463
268.053 130.297
268.071 129.755
268.088 128.880
268.106 127.669
268.123 126.124
268.140 124.279
268.158 122.141
268.175 119.747
268.192 117.088
268.209 114.202
268.244 107.847
268.279 100.888
268.313 93.5371
268.360 83.2459
268.407 73.1007
268.442 65.9572
268.459 62.5291
268.477 59.2135
268.494 56.0208
268.511 52.9592
268.529 50.0352
268.546 47.2692
268.565 44.3955
268.584 41.6971
268.602 39.1738
268.621 36.8358
268.631 35.7185
268.640 34.6547
268.650 33.6317
268.659 32.6488
268.668 31.6955
268.678 30.7910
268.687 29.9241
268.697 29.0940
268.705 28.3576
268.714 27.6591
268.723 26.9815
268.731 26.3395
268.740 25.7173
268.749 25.1285
268.757 24.5586
268.766 24.0198
268.775 23.4988
268.783 23.0067
268.792 22.5314
268.800 22.0828
268.809 21.6497
268.818 21.2414
268.826 20.8475
268.835 20.4764
268.844 20.1186
268.852 19.7817
268.861 19.4570
268.870 19.1514
268.878 18.8570
268.887 18.5800
268.896 18.3133
268.904 18.0623
268.913 17.8207
268.922 17.5934
268.930 17.3745
268.939 17.1686
268.948 16.9703
268.956 16.7838
268.965 16.6060
268.973 16.4368
268.982 16.2736
268.991 16.1200
269.008 15.8323
269.025 15.5706
269.043 15.3322
269.060 15.1146
269.077 14.9156
269.094 14.7331
269.112 14.5654
269.129 14.4108
269.146 14.2681
269.164 14.1358
269.181 14.0128
269.198 13.8982
269.216 13.7912
269.233 13.6908
269.250 13.5970
269.267 13.5116
269.283 13.4312
269.300 13.3549
269.316 13.2823
269.349 13.1470
269.382 13.0232
269.415 12.9092
269.448 12.8036
269.481 12.7052
269.514 12.6133
269.547 12.5268
269.580 12.4457
269.613 12.3691
269.646 12.2966
269.679 12.2278
269.712 12.1625
269.745 12.1002
269.778 12.0409
269.816 11.9761
269.854 11.9146
269.891 11.8560
269.929 11.8001
270.005 11.6953
270.080 11.5990
270.156 11.5099
270.231 11.4273
270.306 11.3501
270.382 11.2778
270.451 11.2153
270.520 11.1561
270.589 11.0998
270.659 11.0463
270.728 10.9951
270.797 10.9461
270.866 10.8991
270.935 10.8541
271.074 10.7688
271.212 10.6894
271.350 10.6149
271.489 10.5447
271.602 10.4901
271.715 10.4376
271.828 10.3871
271.941 10.3384
272.055 10.2912
272.168 10.2455
272.394 10.1578
272.620 10.0744
272.847 9.99449
273.073 9.91744
273.299 9.84277
273.576 9.75404
273.853 9.66747
274.130 9.58250
274.406 9.49865
274.683 9.41544
274.960 9.33251
275.098 9.29104
275.236 9.24955
275.375 9.20798
275.513 9.16630
275.714 9.10538
275.915 9.04413
276.117 8.98248
276.318 8.92043
276.418 8.88925
276.519 8.85799
276.620 8.82665
276.720 8.79525
276.821 8.76382
276.921 8.73238
277.022 8.70097
277.123 8.66965
277.261 8.62681
277.399 8.58450
277.538 8.54291
277.607 8.52252
277.676 8.50250
277.745 8.48286
277.814 8.46370
277.884 8.44512
277.953 8.42724
278.022 8.41013
278.091 8.39398
278.160 8.37891
278.229 8.36515
278.311 8.35084
278.393 8.33911
278.475 8.33048
278.556 8.32564
278.638 8.32538
278.720 8.33074
278.801 8.34297
278.842 8.35216
278.883 8.36367
278.952 8.38931
279.022 8.42404
279.056 8.44539
279.091 8.46978
279.125 8.49752
279.160 8.52889
279.194 8.56449
279.229 8.60471
279.264 8.65008
279.298 8.70124
279.333 8.75892
279.367 8.82397
279.402 8.89739
279.437 8.98011
279.462 9.04733
279.487 9.12072
279.512 9.20159
279.537 9.29017
279.562 9.38817
279.587 9.49598
279.613 9.61587
279.638 9.74851
279.663 9.89693
279.688 10.0623
279.713 10.2487
279.738 10.4579
279.764 10.6957
279.789 10.9650
279.814 11.2736
279.839 11.6259
279.864 12.0330
279.881 12.3484
279.899 12.6972
279.916 13.0836
279.933 13.5120
279.951 13.9876
279.968 14.5162
279.985 15.1041
280.002 15.7542
280.020 16.4819
280.037 17.2920
280.054 18.1939
280.072 19.1977
280.089 20.3144
280.106 21.5561
280.124 22.9355
280.141 24.4572
280.156 25.9177
280.171 27.5022
280.186 29.2423
280.201 31.1258
280.216 33.1893
280.230 35.4170
280.245 37.8339
280.260 40.4521
280.275 43.3037
280.290 46.3629
280.305 49.6834
280.320 53.2330
280.335 57.0715
280.350 61.1592
280.365 65.5316
280.380 70.1990
280.397 76.0005
280.414 82.2249
280.432 88.8828
280.449 95.9822
280.466 103.528
280.484 111.521
280.501 119.961
280.518 128.786
280.535 138.091
280.553 147.808
280.570 157.919
280.587 168.397
280.605 179.211
280.622 190.326
280.656 213.221
280.732 264.917
280.766 288.227
280.801 310.451
280.836 331.126
280.870 349.604
280.889 358.572
280.908 366.600
280.925 373.138
280.942 378.809
280.970 385.870
280.997 390.547
281.020 392.586
281.025 392.777
281.040 392.882
281.055 392.212
281.085 388.582
281.115 382.077
281.145 372.849
281.162 366.317
281.180 359.040
281.214 342.337
281.249 323.268
281.284 302.462
281.322 278.305
281.359 253.506
281.394 230.708
281.429 208.427
281.463 186.933
281.481 176.639
281.498 166.669
281.515 156.996
281.533 147.754
281.550 138.854
281.567 130.410
281.585 122.334
281.602 114.722
281.620 107.488
281.637 100.711
281.650 95.7443
281.664 91.0191
281.677 86.5312
281.690 82.2753
281.704 78.2453
281.717 74.4348
281.731 70.8366
281.744 67.4434
281.757 64.2475
281.771 61.2408
281.784 58.4154
281.798 55.7631
281.811 53.2755
281.824 50.9447
281.838 48.7624
281.851 46.7355
281.869 44.2801
281.886 42.0445
281.903 39.9868
281.921 38.1156
281.938 36.3948
281.955 34.8308
281.973 33.3925
281.990 32.0848
282.007 30.8813
282.025 29.7857
282.042 28.7759
282.059 27.8547
282.077 27.0037
282.094 26.2252
282.111 25.5078
282.129 24.8454
282.149 24.1245
282.170 23.4654
282.190 22.8612
282.211 22.3056
282.231 21.7931
282.252 21.3190
282.272 20.8791
282.293 20.4717
282.313 20.0895
282.334 19.7319
282.354 19.3963
282.375 19.0807
282.395 18.7831
282.416 18.5019
282.436 18.2356
282.456 17.9842
282.491 17.5845
282.526 17.2160
282.561 16.8749
282.595 16.5589
282.630 16.2633
282.665 15.9870
282.699 15.7279
282.734 15.4850
282.769 15.2556
282.803 15.0390
282.838 14.8342
282.873 14.6407
282.907 14.4565
282.942 14.2814
283.011 13.9563
283.055 13.7642
283.100 13.5833
283.144 13.4116
283.188 13.2492
283.232 13.0946
283.276 12.9479
283.320 12.8080
283.364 12.6746
283.453 12.4246
283.541 12.1952
283.629 11.9831
283.717 11.7865
283.774 11.6671
283.831 11.5529
283.944 11.3380
284.058 11.1390
284.171 10.9537
284.285 10.7802
284.398 10.6168
284.512 10.4623
284.625 10.3156
284.758 10.1527
284.824 10.0743
284.890 9.99777
284.956 9.92294
285.022 9.84972
285.089 9.77804
285.155 9.70782
285.221 9.63901
285.287 9.57159
285.353 9.50555
285.420 9.44091
285.486 9.37772
285.552 9.31608
285.618 9.25614
285.684 9.19813
285.754 9.13970
285.823 9.08430
285.893 9.03249
285.927 9.00827
285.962 8.98545
285.997 8.96413
286.031 8.94462
286.066 8.92726
286.101 8.91252
286.135 8.90086
286.170 8.89305
286.205 8.89001
286.239 8.89298
286.263 8.89930
286.287 8.90980
286.310 8.92539
286.334 8.94690
286.358 8.97573
286.381 9.01306
286.405 9.06097
286.428 9.12116
286.452 9.19667
286.476 9.28989
286.488 9.34483
286.499 9.40523
286.511 9.47207
286.523 9.54596
286.535 9.62826
286.547 9.71830
286.559 9.81750
286.570 9.92667
286.582 10.0467
286.594 10.1785
286.606 10.3231
286.618 10.4816
286.635 10.7431
286.652 11.0395
286.670 11.3786
286.678 11.5650
286.687 11.7612
286.696 11.9724
286.704 12.1969
286.713 12.4356
286.722 12.6862
286.730 12.9552
286.739 13.2373
286.748 13.5397
286.756 13.8564
286.765 14.1955
286.774 14.5544
286.782 14.9340
286.791 15.3304
286.800 15.7538
286.808 16.2006
286.817 16.6719
286.826 17.1627
286.834 17.6854
286.843 18.2356
286.852 18.8141
286.860 19.4149
286.878 20.7147
286.895 22.1428
286.905 23.0573
286.915 24.0122
286.926 25.0277
286.936 26.0856
286.946 27.2083
286.956 28.3752
286.967 29.6107
286.977 30.8920
286.987 32.2454
286.997 33.6456
287.018 36.6441
287.038 39.8932
287.059 43.3787
287.076 46.5510
287.094 49.8857
287.111 53.4183
287.128 57.1031
287.146 60.9757
287.163 64.9826
287.180 69.1344
287.198 73.4178
287.224 80.2767
287.251 87.3463
287.278 94.5477
287.305 101.764
287.339 111.044
287.374 120.000
287.380 121.573
287.402 126.921
287.424 131.938
287.442 135.650
287.459 139.086
287.476 142.243
287.494 145.094
287.516 148.258
287.533 150.336
287.550 152.046
287.578 153.995
287.600 154.799
287.612 154.975
287.631 154.851
287.650 154.264
287.666 153.356
287.683 152.101
287.699 150.506
287.716 148.585
287.734 146.120
287.752 143.320
287.785 137.372
287.818 130.521
287.851 122.936
287.884 114.865
287.910 108.381
287.935 101.827
287.986 88.7659
288.019 80.5453
288.052 72.7062
288.069 68.9530
288.085 65.3247
288.102 61.8298
288.118 58.4751
288.141 54.1168
288.163 50.0574
288.175 48.1253
288.186 46.2809
288.197 44.4910
288.208 42.7870
288.220 41.1377
288.231 39.5579
288.242 38.0466
288.253 36.6150
288.265 35.2362
288.276 33.9333
288.287 32.6813
288.298 31.5008
288.315 29.8579
288.331 28.3461
288.348 26.9491
288.364 25.6607
288.381 24.4678
288.398 23.3783
288.414 22.3787
288.431 21.4628
288.447 20.6198
288.464 19.8541
288.480 19.1550
288.497 18.5171
288.513 17.9355
288.530 17.4054
288.546 16.9225
288.563 16.4825
288.573 16.2207
288.584 15.9763
288.594 15.7460
288.605 15.5288
288.615 15.3241
288.626 15.1309
288.647 14.7766
288.668 14.4593
288.689 14.1773
288.710 13.9250
288.731 13.6988
288.752 13.4947
288.773 13.3118
288.794 13.1467
288.815 12.9976
288.836 12.8625
288.857 12.7400
288.878 12.6288
288.899 12.5279
288.932 12.3875
288.965 12.2679
288.998 12.1661
289.031 12.0812
289.064 12.0116
289.097 11.9571
289.130 11.9170
289.163 11.8915
289.196 11.8807
289.229 11.8854
289.262 11.9064
289.295 11.9449
289.329 12.0030
289.362 12.0825
289.395 12.1866
289.428 12.3190
289.464 12.5020
289.482 12.6105
289.500 12.7320
289.518 12.8689
289.536 13.0211
289.554 13.1913
289.572 13.3814
289.590 13.5950
289.608 13.8325
289.626 14.0980
289.644 14.3948
289.662 14.7269
289.680 15.0986
289.698 15.5146
289.716 15.9804
289.732 16.4594
289.749 16.9877
289.765 17.5738
289.782 18.2240
289.799 18.9496
289.815 19.7493
289.832 20.6353
289.848 21.6164
289.865 22.7089
289.881 23.9096
289.898 25.2357
289.914 26.6985
289.931 28.3102
289.947 30.0836
289.964 32.0320
289.980 34.1693
289.994 36.1857
290.009 38.3645
290.023 40.7156
290.037 43.2305
290.052 45.9546
290.066 48.8596
290.080 51.9965
290.094 55.3309
290.109 58.9192
290.123 62.7478
290.137 66.8256
290.151 71.1292
290.166 75.7267
290.180 80.5603
290.194 85.7035
290.208 91.0889
290.225 97.7402
290.241 104.734
290.258 112.110
290.274 119.864
290.291 127.991
290.307 136.483
290.324 145.325
290.340 154.502
290.357 164.052
290.374 173.836
290.407 194.156
290.440 215.310
290.473 236.839
290.506 258.481
290.539 279.676
290.572 300.027
290.605 319.061
290.638 336.356
290.671 351.363
290.690 359.016
290.710 365.675
290.736 372.970
290.762 378.215
290.781 380.655
290.800 381.979
290.805 382.134
290.820 382.151
290.835 381.422
290.866 377.774
290.895 371.703
290.924 363.233
290.953 352.275
290.983 339.307
291.012 324.532
291.042 308.309
291.088 281.189
291.133 252.699
291.192 215.451
291.222 197.336
291.252 179.918
291.281 163.258
291.311 147.605
291.325 140.143
291.340 132.954
291.355 126.046
291.370 119.467
291.385 113.131
291.399 107.083
291.414 101.323
291.429 95.8859
291.444 90.6927
291.458 85.7768
291.473 81.1321
291.488 76.7803
291.503 72.6543
291.518 68.7761
291.532 65.1366
291.547 61.7483
291.562 58.5555
291.577 55.5718
291.591 52.7869
291.606 50.2076
291.621 47.7885
291.636 45.5378
291.651 43.4455
291.665 41.5019
291.680 39.6977
291.695 38.0236
291.710 36.4711
291.724 35.0410
291.739 33.7060
291.754 32.4686
291.769 31.3216
291.784 30.2651
291.798 29.2785
291.813 28.3632
291.828 27.5136
291.843 26.7297
291.855 26.0921
291.868 25.4933
291.881 24.9306
291.894 24.4054
291.907 23.9071
291.919 23.4413
291.945 22.5843
291.970 21.8171
291.996 21.1334
292.021 20.5194
292.047 19.9664
292.072 19.4648
292.098 19.0126
292.123 18.6023
292.149 18.2298
292.175 17.8903
292.200 17.5839
292.226 17.3069
292.251 17.0579
292.278 16.8245
292.305 16.6207
292.332 16.4467
292.359 16.3038
292.385 16.1926
292.412 16.1160
292.439 16.0776
292.466 16.0816
292.493 16.1339
292.520 16.2418
292.547 16.4144
292.560 16.5278
292.574 16.6615
292.587 16.8184
292.600 16.9983
292.614 17.2057
292.627 17.4400
292.641 17.7071
292.654 18.0057
292.668 18.3406
292.681 18.7149
292.696 19.1781
292.711 19.6983
292.725 20.2808
292.740 20.9312
292.755 21.6556
292.770 22.4605
292.785 23.3529
292.799 24.3331
292.814 25.4222
292.829 26.6220
292.844 27.9411
292.858 29.3784
292.873 30.9627
292.888 32.6943
292.903 34.5832
292.918 36.6251
292.934 39.0791
292.950 41.7427
292.966 44.6440
292.982 47.7967
292.998 51.2139
293.014 54.9087
293.030 58.8934
293.046 63.1798
293.057 66.0276
293.067 69.0008
293.077 72.1017
293.087 75.3322
293.107 82.1891
293.127 89.5448
293.147 97.4785
293.167 105.913
293.188 114.925
293.208 124.416
293.223 131.726
293.237 139.299
293.252 147.120
293.267 155.122
293.296 171.865
293.326 189.249
293.366 213.813
293.407 238.618
293.436 256.618
293.466 274.031
293.495 290.659
293.525 306.075
293.554 320.073
293.584 332.273
293.614 342.500
293.639 349.403
293.663 354.589
293.682 357.278
293.700 358.994
293.709 359.485
293.739 359.359
293.769 356.650
293.788 353.505
293.808 349.319
293.828 343.786
293.849 337.199
293.868 330.291
293.887 322.667
293.906 314.320
293.925 305.412
293.963 286.044
294.001 265.205
294.046 239.491
294.090 213.655
294.128 192.302
294.147 181.920
294.166 171.869
294.185 162.080
294.204 152.690
294.223 143.673
294.242 135.050
294.261 126.794
294.280 118.962
294.299 111.559
294.318 104.623
294.337 98.0775
294.356 91.9842
294.375 86.2695
294.394 80.9815
294.410 76.7026
294.426 72.7005
294.443 68.9642
294.459 65.5023
294.476 62.2604
294.492 59.2657
294.508 56.4690
294.525 53.8920
294.541 51.4908
294.557 49.2695
294.574 47.2162
294.590 45.3305
294.606 43.5781
294.623 41.9699
294.639 40.4760
294.655 39.1052
294.674 37.6387
294.693 36.3012
294.712 35.0802
294.731 33.9702
294.750 32.9490
294.769 32.0181
294.788 31.1589
294.807 30.3729
294.826 29.6447
294.845 28.9723
294.864 28.3500
294.883 27.7756
294.902 27.2385
294.921 26.7403
294.940 26.2722
294.959 25.8358
294.988 25.2108
295.017 24.6404
295.047 24.1170
295.076 23.6346
295.105 23.1878
295.135 22.7723
295.164 22.3844
295.193 22.0224
295.222 21.6810
295.252 21.3595
295.281 21.0557
295.310 20.7682
295.340 20.4955
295.369 20.2363
295.398 19.9895
295.427 19.7550
295.465 19.4654
295.503 19.1927
295.541 18.9346
295.579 18.6899
295.617 18.4574
295.655 18.2362
295.693 18.0254
295.731 17.8242
295.807 17.4477
295.882 17.1020
295.958 16.7830
296.034 16.4873
296.099 16.2484
296.165 16.0232
296.230 15.8105
296.296 15.6093
296.361 15.4179
296.427 15.2358
296.492 15.0622
296.558 14.8965
296.623 14.7375
296.689 14.5851
296.754 14.4386
296.820 14.2979
296.951 14.0307
297.082 13.7811
297.192 13.5824
297.302 13.3929
297.412 13.2117
297.523 13.0378
297.654 12.8395
297.785 12.6493
297.850 12.5567
297.916 12.4659
297.981 12.3766
298.046 12.2889
298.112 12.2025
298.177 12.1175
298.243 12.0340
298.308 11.9519
298.374 11.8712
298.439 11.7919
298.505 11.7142
298.570 11.6384
298.646 11.5528
298.722 11.4703
298.798 11.3915
298.874 11.3170
298.911 11.2817
298.949 11.2480
298.987 11.2160
299.025 11.1860
299.063 11.1582
299.101 11.1331
299.139 11.1109
299.177 11.0921
299.206 11.0804
299.235 11.0714
299.265 11.0654
299.294 11.0631
299.323 11.0648
299.353 11.0712
299.382 11.0831
299.411 11.1014
299.440 11.1273
299.470 11.1621
299.499 11.2077
299.528 11.2662
299.558 11.3402
299.587 11.4332
299.616 11.5494
299.645 11.6932
299.664 11.8049
299.683 11.9326
299.702 12.0799
299.721 12.2480
299.740 12.4419
299.759 12.6629
299.778 12.9174
299.797 13.2072
299.816 13.5405
299.835 13.9195
299.854 14.3545
299.873 14.8481
299.892 15.4134
299.911 16.0531
299.920 16.4068
299.930 16.7837
299.939 17.1852
299.949 17.6079
299.965 18.4107
299.981 19.3031
299.998 20.2938
300.014 21.3847
300.031 22.5987
300.047 23.9395
300.063 25.4177
300.080 27.0338
300.096 28.8189
300.112 30.7751
300.129 32.9143
300.145 35.2336
300.162 37.7735
300.178 40.5323
300.194 43.5217
300.211 46.7327
300.228 50.4141
300.245 54.3649
300.262 58.6164
300.280 63.1780
300.299 68.5868
300.317 74.3602
300.336 80.5642
300.355 87.1352
300.374 94.1405
300.393 101.500
300.412 109.281
300.431 117.386
300.460 130.619
300.490 144.575
300.519 159.121
300.548 174.097
300.624 213.428
300.662 232.519
300.700 250.419
300.719 258.789
300.738 266.625
300.757 273.908
300.776 280.577
300.795 286.605
300.814 291.904
300.835 296.984
300.857 300.989
300.878 303.914
300.900 305.704
300.909 306.101
300.937 306.105
300.965 304.171
300.993 300.283
301.022 294.552
301.051 286.962
301.080 277.807
301.109 267.261
301.138 255.544
301.180 236.861
301.222 216.921
301.280 188.746
301.309 174.820
301.338 161.227
301.367 148.070
301.395 135.562
301.410 129.545
301.424 123.714
301.439 118.077
301.453 112.677
301.468 107.444
301.482 102.418
301.497 97.6034
301.511 93.0306
301.526 88.6360
301.540 84.4787
301.555 80.4985
301.569 76.7471
301.584 73.1681
301.598 69.7835
301.613 66.5880
301.627 63.5957
301.641 60.7588
301.656 58.1098
301.670 55.6052
301.685 53.2723
301.699 51.0717
301.714 49.0129
301.728 47.0885
301.743 45.3034
301.757 43.6257
301.772 42.0613
301.786 40.6033
301.801 39.2542
301.815 37.9890
301.830 36.8112
301.844 35.7150
301.858 34.7015
301.873 33.7513
301.887 32.8668
301.902 32.0430
301.916 31.2807
301.928 30.7236
301.939 30.1957
301.950 29.6953
301.961 29.2208
301.972 28.7705
301.984 28.3430
301.995 27.9370
302.006 27.5544
302.017 27.1871
302.028 26.8376
302.051 26.1899
302.073 25.5977
302.095 25.0592
302.118 24.5636
302.140 24.1099
302.162 23.6893
302.185 23.3017
302.207 22.9400
302.229 22.6044
302.252 22.2893
302.274 21.9952
302.303 21.6387
302.332 21.3093
302.361 21.0017
302.390 20.7153
302.419 20.4459
302.448 20.1937
302.477 19.9559
302.506 19.7314
302.535 19.5180
302.563 19.3164
302.592 19.1248
302.621 18.9424
302.650 18.7680
302.679 18.6021
302.737 18.2918
302.774 18.1072
302.811 17.9327
302.847 17.7668
302.884 17.6090
302.921 17.4582
302.958 17.3147
303.032 17.0464
303.105 16.8001
303.179 16.5735
303.253 16.3636
303.326 16.1692
303.384 16.0257
303.442 15.8897
303.500 15.7607
303.558 15.6383
303.616 15.5215
303.673 15.4102
303.731 15.3038
303.789 15.2023
303.847 15.1049
303.905 15.0115
303.963 14.9219
304.021 14.8360
304.079 14.7531
304.136 14.6735
304.194 14.5967
304.252 14.5227
304.315 14.4447
304.378 14.3698
304.441 14.2975
304.505 14.2280
304.568 14.1608
304.631 14.0962
304.694 14.0340
304.757 13.9742
304.825 13.9123
304.894 13.8537
304.928 13.8258
304.962 13.7990
304.996 13.7734
305.031 13.7493
305.065 13.7270
305.099 13.7069
305.133 13.6895
305.167 13.6756
305.202 13.6661
305.219 13.6634
305.236 13.6624
305.253 13.6631
305.270 13.6660
305.287 13.6713
305.304 13.6791
305.325 13.6931
305.346 13.7124
305.367 13.7380
305.388 13.7707
305.409 13.8119
305.430 13.8624
305.441 13.8919
305.452 13.9241
305.462 13.9594
305.473 13.9980
305.483 14.0406
305.494 14.0865
305.504 14.1365
305.515 14.1907
305.525 14.2499
305.536 14.3134
305.546 14.3820
305.557 14.4559
305.567 14.5362
305.578 14.6218
305.588 14.7136
305.599 14.8120
305.609 14.9173
305.620 15.0299
305.630 15.1501
305.641 15.2782
305.655 15.4689
305.670 15.6765
305.684 15.9018
305.699 16.1440
305.713 16.4076
305.728 16.6918
305.742 16.9975
305.757 17.3234
305.771 17.6747
305.786 18.0502
305.800 18.4506
305.815 18.8735
305.829 19.3255
305.843 19.8009
305.858 20.3066
305.872 20.8362
305.888 21.4488
305.904 22.0946
305.920 22.7735
305.935 23.4806
305.951 24.2246
305.967 25.0005
305.999 26.6386
306.028 28.2473
306.056 29.9364
306.085 31.7051
306.114 33.5270
306.146 35.5609
306.177 37.6226
306.206 39.5242
306.235 41.4027
306.259 42.9172
306.283 44.3974
306.312 46.1417
306.330 47.2107
306.359 48.8191
306.389 50.3831
306.400 50.9175
306.428 52.1908
306.430 52.3143
306.437 52.6222
306.445 52.9227
306.459 53.4969
306.485 54.5054
306.512 55.4054
306.539 56.1987
306.566 56.8890
306.600 57.6267
306.600 59.9133
316.228 59.1739
350.000 56.5802
398.107 53.5538
400.000 53.4347
500.000 48.6253
501.187 48.5832
600.000 45.0755
630.957 44.2395
720.000 41.8351
794.328 40.2892
850.000 39.1314
1000.00 36.6930
1250.00 33.6523
1258.93 33.5722
1500.00 31.4079
1584.89 30.8025
1700.00 29.9815
1995.26 28.2849
2000.00 28.2577
2500.00 26.1079
2511.89 26.0702
3000.00 24.5208
3162.28 24.1205
3500.00 23.2872
3981.07 22.3303
4000.00 22.2926
5000.00 20.7713
5011.87 20.7579
6000.00 19.6474
6309.57 19.3767
7000.00 18.7731
7200.00 18.6204
7943.28 18.1297
8500.00 17.7622
10000.0 16.9867
12500.0 16.0166
12589.3 15.9909
15000.0 15.2972
15848.9 15.1022
17000.0 14.8378
19952.6 14.2882
20000.0 14.2794
25000.0 13.5761
25118.9 13.5636
30000.0 13.0496
31622.8 12.9147
35000.0 12.6341
39810.7 12.3068
40000.0 12.2940
50000.0 11.7612
50118.7 11.7560
54880.5 11.5505
54880.5 11.5505
54881.1 11.5505
54881.1 9.23396
60000.0 9.17042
63095.7 9.08034
64330.9 9.04440
70000.0 8.93069
79432.8 8.80593
80000.0 8.79843
90000.0 8.65990
100000 8.55027
116464 8.36410
120000 8.32411
125893 8.25748
130000 8.21104
132295 8.18508
150000 7.98488
158489 7.93942
181388 7.81680
181389 7.81679
199526 7.71967
200000 7.71713
228771 7.63301
228771 7.63301
250000 7.57094
251189 7.56746
270000 7.51246
277774 7.48973
277774 7.48973
300000 7.42474
316228 7.40628
317025 7.40538
320000 7.40199
349482 7.36846
349482 7.36846
350000 7.36787
362314 7.35989
362314 7.35989
370000 7.35491
374391 7.35207
374391 7.35207
398107 7.33671
400000 7.33548
420000 7.32952
428738 7.32692
428738 7.32692
437222 7.32439
437223 7.32439
450000 7.32059
470000 7.31463
477681 7.31234
481948 7.31107
481948 7.31107
500000 7.30569
501187 7.30570
516297 7.30578
516298 7.30578
517978 7.30579
517978 7.30579
520000 7.30580
528224 7.30585
550000 7.30597
569638 7.30607
569638 7.30607
570000 7.30607
584735 7.30616
600000 7.30624
611495 7.30685
611496 7.30685
620000 7.30730
621972 7.30740
621972 7.30740
630957 7.30788
644677 7.30860
644677 7.30860
650000 7.30888
659915 7.30940
661938 7.30951
669275 7.30990
670000 7.30994
687622 7.31087
689403 7.31096
689403 7.31096
691084 7.31105
694435 7.31123
700000 7.31152
700474 7.31146
706613 7.31066
720000 7.30893
727547 7.30795
733706 7.30715
740000 7.30633
743750 7.30585
743750 7.30585
751802 7.30480
756260 7.30422
756260 7.30422
760000 7.30374
762872 7.30336
767562 7.30275
767562 7.30275
776278 7.30163
780000 7.30114
783866 7.30064
791052 7.29971
791052 7.29971
794328 7.29928
798500 7.29874
799104 7.29866
800000 7.29855
849657 7.29210
882637 7.28783
900000 7.28557
936984 7.28078
981599 7.27499
1.00000E+06 7.27260
1.04115E+06 7.25942
1.04467E+06 7.25829
1.10000E+06 7.24056
1.12720E+06 7.23185
1.17249E+06 7.21734
1.20000E+06 7.20853
1.23388E+06 7.19254
1.25946E+06 7.18047
1.30000E+06 7.16133
1.30565E+06 7.15866
1.31339E+06 7.15501
1.40000E+06 7.11413
1.50000E+06 7.06693
1.56297E+06 7.02855
1.57947E+06 7.01849
1.60000E+06 7.00598
1.61257E+06 6.99831
1.64853E+06 6.97639
1.66463E+06 6.96658
1.68979E+06 6.95124
1.70000E+06 6.94502
1.73709E+06 6.91723
1.80000E+06 6.87009
1.83975E+06 6.84031
1.89309E+06 6.80034
1.90000E+06 6.79517
1.91523E+06 6.78376
1.95440E+06 6.75441
1.96253E+06 6.74832
1.97091E+06 6.74204
1.97656E+06 6.73780
1.99776E+06 6.72192
2.00000E+06 6.72024
2.01232E+06 6.71364
2.05726E+06 6.68959
2.15677E+06 6.63631
2.19804E+06 6.61421
2.20000E+06 6.61316
2.23024E+06 6.59698
2.40000E+06 6.50609
2.50000E+06 6.45255
2.60000E+06 6.39490
2.80000E+06 6.27961
3.00000E+06 6.16431
3.50000E+06 5.85924
4.00000E+06 5.55416
4.50000E+06 5.31038
5.00000E+06 5.13523
5.50000E+06 5.04876
6.00000E+06 4.96229
6.40088E+06 4.92721
6.40088E+06 4.92721
6.50000E+06 4.91854
6.59915E+06 4.91369
7.00000E+06 4.89407
7.50000E+06 4.89142
7.80000E+06 4.88982
8.00000E+06 4.88876
8.08061E+06 4.89050
8.50000E+06 4.89955
9.00000E+06 4.91034
9.50000E+06 4.92823
1.00000E+07 4.95764
1.05000E+07 4.98705
1.10000E+07 5.01646
1.15000E+07 5.04587
1.20000E+07 5.07528
1.25000E+07 5.10469
1.30000E+07 5.13410
1.35000E+07 5.15247
1.40000E+07 5.17084
1.44583E+07 5.18768
1.45000E+07 5.18921
1.49917E+07 5.19546
1.49918E+07 5.19546
1.50000E+07 5.19556
1.55000E+07 5.20192
1.60000E+07 5.20827
1.65000E+07 5.20051
1.70000E+07 5.19275
1.75000E+07 5.18498
1.80000E+07 5.17722
1.85000E+07 5.16162
1.90000E+07 5.14602
1.91000E+07 5.14290
1.95000E+07 5.11731
1.99000E+07 5.09172
2.00000E+07 5.08669
