Dy-156(n,g) ENDFB-8.0
Energy(eV) XS(b)
1.00000E-05 1637.47
1.03125E-05 1612.47
1.06250E-05 1588.58
1.09375E-05 1565.72
1.12500E-05 1543.82
1.15625E-05 1522.82
1.18750E-05 1502.65
1.21875E-05 1483.26
1.25000E-05 1464.60
1.28125E-05 1446.63
1.31250E-05 1429.31
1.34375E-05 1412.59
1.37500E-05 1396.44
1.43750E-05 1365.75
1.50000E-05 1336.99
1.56250E-05 1309.98
1.62500E-05 1284.54
1.68750E-05 1260.53
1.75000E-05 1237.82
1.81250E-05 1216.29
1.87500E-05 1195.85
1.93750E-05 1176.40
2.00000E-05 1157.87
2.09375E-05 1131.66
2.18750E-05 1107.14
2.28125E-05 1084.15
2.37500E-05 1062.54
2.46875E-05 1042.17
2.56250E-05 1022.93
2.65625E-05 1004.72
2.75000E-05 987.443
2.84375E-05 971.030
2.93750E-05 955.410
3.03125E-05 940.520
3.12500E-05 926.305
3.21875E-05 912.716
3.31250E-05 899.708
3.40625E-05 887.241
3.50000E-05 875.278
3.59375E-05 863.787
3.68750E-05 852.736
3.78125E-05 842.099
3.87500E-05 831.851
3.96875E-05 821.967
4.06250E-05 812.428
4.25000E-05 794.306
4.43750E-05 777.344
4.62500E-05 761.425
4.81250E-05 746.446
5.00000E-05 732.317
5.15625E-05 721.137
5.31250E-05 710.453
5.46875E-05 700.231
5.62500E-05 690.438
5.78125E-05 681.044
5.93750E-05 672.024
6.09375E-05 663.353
6.25000E-05 655.009
6.40625E-05 646.973
6.56250E-05 639.225
6.71875E-05 631.749
6.87500E-05 624.529
7.18750E-05 610.803
7.50000E-05 597.943
7.81250E-05 585.863
8.12500E-05 574.487
8.43750E-05 563.749
8.75000E-05 553.592
9.06250E-05 543.965
9.37500E-05 534.823
9.68750E-05 526.127
0.000100000 517.842
0.000103125 509.936
0.000106250 502.382
0.000109375 495.154
0.000112500 488.230
0.000115625 481.588
0.000118750 475.210
0.000121875 469.078
0.000125000 463.179
0.000128125 457.496
0.000131250 452.018
0.000134375 446.732
0.000137500 441.627
0.000143750 431.921
0.000150000 422.829
0.000156250 414.287
0.000162500 406.244
0.000168750 398.651
0.000175000 391.469
0.000181250 384.662
0.000187500 378.198
0.000193750 372.049
0.000200000 366.191
0.000209375 357.901
0.000218750 350.150
0.000228125 342.881
0.000237500 336.048
0.000246875 329.607
0.000256250 323.523
0.000265625 317.765
0.000275000 312.303
0.000284375 307.114
0.000293750 302.175
0.000303125 297.467
0.000312500 292.973
0.000321875 288.676
0.000331250 284.564
0.000340625 280.622
0.000350000 276.839
0.000359375 273.206
0.000368750 269.712
0.000378125 266.349
0.000387500 263.109
0.000396875 259.984
0.000406250 256.969
0.000425000 251.239
0.000443750 245.877
0.000462500 240.844
0.000481250 236.108
0.000500000 231.641
0.000515625 228.107
0.000531250 224.729
0.000546875 221.498
0.000562500 218.402
0.000578125 215.432
0.000593750 212.581
0.000609375 209.840
0.000625000 207.202
0.000640625 204.662
0.000656250 202.212
0.000671875 199.849
0.000687500 197.567
0.000718750 193.228
0.000750000 189.163
0.000781250 185.345
0.000812500 181.749
0.000843750 178.355
0.000875000 175.144
0.000906250 172.101
0.000937500 169.212
0.000968750 166.464
0.00100000 163.845
0.00103125 161.347
0.00106250 158.959
0.00109375 156.675
0.00112500 154.486
0.00115625 152.387
0.00118750 150.372
0.00121875 148.434
0.00125000 146.570
0.00128125 144.774
0.00131250 143.043
0.00134375 141.373
0.00137500 139.760
0.00143750 136.693
0.00150000 133.820
0.00156250 131.121
0.00162500 128.580
0.00168750 126.181
0.00175000 123.912
0.00181250 121.761
0.00187500 119.719
0.00193750 117.777
0.00200000 115.926
0.00209375 113.308
0.00218750 110.859
0.00228125 108.564
0.00237500 106.405
0.00246875 104.371
0.00256250 102.450
0.00265625 100.631
0.00275000 98.9066
0.00284375 97.2681
0.00293750 95.7087
0.00303125 94.2223
0.00312500 92.8034
0.00321875 91.4471
0.00331250 90.1488
0.00340625 88.9046
0.00350000 87.7107
0.00359375 86.5640
0.00368750 85.4614
0.00378125 84.4000
0.00387500 83.3775
0.00396875 82.3915
0.00406250 81.4399
0.00425000 79.6322
0.00443750 77.9405
0.00462500 76.3529
0.00481250 74.8592
0.00500000 73.4504
0.00515625 72.3358
0.00531250 71.2709
0.00546875 70.2520
0.00562500 69.2759
0.00578125 68.3398
0.00593750 67.4410
0.00609375 66.5771
0.00625000 65.7459
0.00640625 64.9453
0.00656250 64.1736
0.00671875 63.4291
0.00687500 62.7101
0.00718750 61.3433
0.00750000 60.0631
0.00781250 58.8608
0.00812500 57.7286
0.00843750 56.6601
0.00875000 55.6496
0.00906250 54.6919
0.00937500 53.7827
0.00968750 52.9181
0.0100000 52.0944
0.0103125 51.3087
0.0106250 50.5580
0.0109375 49.8399
0.0112500 49.1521
0.0115625 48.4926
0.0118750 47.8594
0.0121875 47.2508
0.0125000 46.6654
0.0128125 46.1016
0.0131250 45.5582
0.0134375 45.0340
0.0137500 44.5279
0.0143750 43.5658
0.0150000 42.6649
0.0156250 41.8188
0.0162500 41.0223
0.0168750 40.2707
0.0175000 39.5599
0.0181250 38.8866
0.0187500 38.2474
0.0193750 37.6396
0.0200000 37.0608
0.0206625 36.4765
0.0213250 35.9198
0.0219875 35.3887
0.0226500 34.8813
0.0233125 34.3960
0.0239750 33.9311
0.0246375 33.4853
0.0253000 33.0573
0.0264578 32.3488
0.0276156 31.6858
0.0287734 31.0638
0.0299313 30.4788
0.0310891 29.9273
0.0322469 29.4063
0.0334047 28.9129
0.0345625 28.4449
0.0355274 28.0728
0.0364922 27.7157
0.0374570 27.3726
0.0384219 27.0427
0.0393867 26.7253
0.0403516 26.4194
0.0422813 25.8400
0.0442109 25.2997
0.0461406 24.7944
0.0480703 24.3205
0.0500000 23.8750
0.0515625 23.5331
0.0531250 23.2069
0.0546875 22.8951
0.0562500 22.5967
0.0578125 22.3109
0.0593750 22.0368
0.0609375 21.7737
0.0625000 21.5209
0.0640625 21.2777
0.0656250 21.0436
0.0687500 20.6003
0.0718750 20.1871
0.0750000 19.8007
0.0781250 19.4387
0.0812500 19.0986
0.0843750 18.7784
0.0875000 18.4763
0.0906250 18.1908
0.0937500 17.9204
0.0968750 17.6639
0.100000 17.4202
0.103125 17.1883
0.106250 16.9674
0.109375 16.7566
0.112500 16.5552
0.115625 16.3627
0.118750 16.1784
0.121875 16.0018
0.125000 15.8325
0.128125 15.6700
0.131250 15.5138
0.137500 15.2190
0.143750 14.9452
0.150000 14.6903
0.156250 14.4524
0.162500 14.2300
0.168750 14.0216
0.175000 13.8260
0.181250 13.6420
0.187500 13.4687
0.193750 13.3053
0.200000 13.1510
0.209375 12.9350
0.218750 12.7355
0.228125 12.5510
0.237500 12.3800
0.246875 12.2214
0.256250 12.0739
0.265625 11.9367
0.275000 11.8088
0.284375 11.6895
0.293750 11.5781
0.303125 11.4741
0.312500 11.3769
0.321875 11.2860
0.331250 11.2010
0.340625 11.1216
0.350000 11.0474
0.359375 10.9782
0.368750 10.9138
0.382813 10.8251
0.396875 10.7450
0.410938 10.6732
0.425000 10.6091
0.443750 10.5348
0.462500 10.4722
0.500000 10.3796
0.531250 10.3315
0.562500 10.3066
0.625000 10.3213
0.687500 10.4146
0.750000 10.5816
0.812500 10.8217
0.875000 11.1396
0.937500 11.5367
0.968750 11.7664
1.00000 12.0222
1.03125 12.3039
1.06250 12.6137
1.09375 12.9539
1.12500 13.3273
1.15625 13.7375
1.18750 14.1883
1.21875 14.6843
1.25000 15.2311
1.28125 15.8349
1.31250 16.5035
1.34375 17.2459
1.37500 18.0732
1.40625 18.9987
1.43750 20.0383
1.46875 21.2114
1.50000 22.5385
1.52149 23.5577
1.54297 24.6805
1.56445 25.9205
1.58594 27.2938
1.60742 28.8210
1.62891 30.5266
1.65039 32.4412
1.67188 34.6019
1.69141 36.8183
1.70117 38.0300
1.71094 39.3186
1.72070 40.6912
1.73047 42.1553
1.74024 43.7195
1.75000 45.3930
1.76270 47.7499
1.77539 50.3373
1.78809 53.1889
1.80078 56.3443
1.81348 59.8509
1.82617 63.7635
1.83887 68.1489
1.84522 70.5437
1.85156 73.0879
1.86231 77.7732
1.87305 82.9987
1.88379 88.8535
1.88916 92.0496
1.89453 95.4451
1.89990 99.0571
1.90527 102.905
1.91065 107.009
1.91602 111.395
1.92139 116.087
1.92676 121.116
1.93213 126.516
1.93750 132.323
1.94434 140.373
1.95117 149.256
1.95801 159.093
1.96484 170.028
1.97168 182.230
1.97510 188.870
1.97852 195.906
1.98193 203.372
1.98535 211.303
1.98877 219.738
1.99219 228.720
1.99609 239.716
2.00000 251.568
2.00465 266.902
2.00929 283.746
2.01394 302.295
2.01858 322.777
2.02323 345.452
2.02787 370.619
2.03252 398.619
2.03484 413.803
2.03716 429.839
2.04096 458.084
2.04476 489.031
2.04856 522.978
2.05236 560.209
2.05426 580.168
2.05616 601.059
2.05806 622.931
2.05996 645.826
2.06186 669.782
2.06376 694.839
2.06566 721.035
2.06756 748.403
2.06989 783.507
2.07221 820.452
2.07453 859.313
2.07685 900.092
2.07918 942.844
2.08150 987.537
2.08382 1034.20
2.08614 1082.75
2.08847 1133.19
2.09079 1185.38
2.09311 1239.27
2.09543 1294.68
2.09776 1351.48
2.10008 1409.44
2.10240 1468.34
2.10472 1527.93
2.10662 1576.91
2.10851 1625.95
2.11041 1674.92
2.11230 1723.58
2.11610 1819.24
2.11989 1911.15
2.12414 2007.64
2.12840 2094.47
2.13265 2169.16
2.13691 2229.39
2.14018 2264.68
2.14345 2289.58
2.14673 2303.62
2.15000 2306.52
2.15262 2300.78
2.15524 2287.95
2.15786 2268.19
2.16048 2241.78
2.16309 2209.03
2.16571 2170.35
2.16833 2126.22
2.17095 2077.17
2.17428 2008.44
2.17762 1933.84
2.18095 1854.60
2.18429 1772.01
2.18762 1687.20
2.19095 1601.36
2.19429 1515.49
2.19762 1430.56
2.20286 1300.72
2.20810 1177.61
2.21072 1119.11
2.21334 1062.87
2.21597 1009.00
2.21859 957.568
2.22287 878.692
2.22716 806.379
2.22931 772.626
2.23145 740.450
2.23360 709.796
2.23574 680.617
2.23789 652.852
2.24003 626.473
2.24217 601.413
2.24432 577.615
2.24646 555.014
2.24861 533.574
2.25075 513.229
2.25289 493.924
2.25552 471.659
2.25814 450.774
2.26076 431.178
2.26338 412.786
2.26600 395.517
2.26862 379.292
2.27124 364.041
2.27386 349.702
2.27648 336.200
2.27910 323.483
2.28172 311.496
2.28435 300.190
2.28697 289.517
2.28959 279.434
2.29483 260.885
2.30007 244.251
2.30531 229.294
2.31055 215.803
2.31580 203.605
2.32104 192.540
2.32628 182.482
2.33152 173.314
2.33676 164.941
2.34200 157.274
2.34725 150.240
2.35249 143.776
2.35773 137.826
2.36297 132.336
2.36821 127.267
2.37345 122.577
2.37869 118.234
2.38394 114.205
2.38918 110.465
2.39442 106.990
2.39966 103.758
2.40490 100.750
2.41014 97.9478
2.42063 92.9008
2.43206 88.1391
2.44350 84.0443
2.45494 80.5234
2.46637 77.5016
2.47781 74.9164
2.48925 72.7170
2.50068 70.8601
2.51212 69.3101
2.52165 68.2311
2.53118 67.3304
2.54071 66.5958
2.55024 66.0175
2.55977 65.5868
2.56930 65.2968
2.58836 65.1168
2.59884 65.2352
2.60933 65.5027
2.61981 65.9172
2.63029 66.4772
2.64078 67.1830
2.65126 68.0356
2.66174 69.0373
2.67223 70.1917
2.68271 71.5034
2.69319 72.9782
2.70368 74.6234
2.71416 76.4475
2.72464 78.4609
2.73513 80.6748
2.74561 83.1028
2.75609 85.7604
2.77039 89.7867
2.78468 94.3247
2.79898 99.4379
2.81328 105.203
2.82757 111.714
2.83472 115.284
2.84187 119.084
2.84901 123.134
2.85616 127.453
2.86331 132.062
2.87046 136.985
2.88094 144.833
2.89142 153.514
2.90191 163.143
2.91239 173.855
2.92287 185.815
2.92812 192.322
2.93336 199.215
2.93860 206.528
2.94384 214.292
2.94908 222.547
2.95432 231.331
2.96195 245.154
2.96957 260.358
2.97720 277.136
2.98482 295.711
2.98863 305.756
2.99244 316.352
2.99626 327.542
3.00007 339.373
3.00388 351.892
3.00769 365.156
3.01150 379.224
3.01532 394.163
3.01818 405.987
3.02104 418.371
3.02389 431.357
3.02675 444.983
3.02961 459.292
3.03247 474.330
3.03390 482.140
3.03533 490.147
3.03676 498.367
3.03819 506.797
3.04081 522.842
3.04212 531.164
3.04343 539.686
3.04474 548.427
3.04605 557.381
3.04736 566.568
3.04867 575.983
3.04998 585.647
3.05129 595.554
3.05261 605.727
3.05392 616.159
3.05523 626.876
3.05654 637.870
3.05785 649.160
3.05916 660.755
3.06047 672.676
3.06178 684.914
3.06309 697.500
3.06440 710.427
3.06571 723.726
3.06702 737.390
3.06833 751.452
3.06964 765.905
3.07095 780.785
3.07226 796.084
3.07357 811.839
3.07488 828.043
3.07619 844.736
3.07750 861.909
3.07881 879.592
3.08012 897.803
3.08143 916.573
3.08274 935.894
3.08406 955.814
3.08537 976.321
3.08668 997.468
3.08799 1019.24
3.08930 1041.68
3.09061 1064.81
3.09192 1088.67
3.09323 1113.23
3.09454 1138.58
3.09585 1164.68
3.09716 1191.60
3.09847 1219.33
3.09978 1247.91
3.10109 1277.36
3.10240 1307.74
3.10371 1339.01
3.10502 1371.26
3.10633 1404.46
3.10764 1438.68
3.10895 1473.89
3.11026 1510.18
3.11157 1547.51
3.11288 1585.96
3.11419 1625.50
3.11551 1666.20
3.11682 1708.02
3.11944 1795.25
3.12206 1887.27
3.12468 1984.29
3.12730 2086.34
3.12992 2193.48
3.13254 2305.66
3.13516 2422.95
3.13778 2545.19
3.14040 2672.25
3.14302 2803.85
3.14564 2939.81
3.14826 3079.74
3.15089 3223.19
3.15351 3369.60
3.15613 3518.50
3.15875 3669.16
3.16137 3820.85
3.16399 3972.69
3.16890 4254.73
3.17381 4528.03
3.17872 4785.89
3.18363 5021.31
3.18692 5163.40
3.19022 5290.31
3.19352 5400.25
3.19681 5491.59
3.20011 5562.97
3.20341 5613.32
3.20670 5641.86
3.21000 5648.17
3.21264 5637.14
3.21528 5611.93
3.21791 5572.80
3.22055 5520.15
3.22451 5416.96
3.22846 5286.81
3.23242 5132.44
3.23638 4956.99
3.24033 4763.84
3.24429 4556.68
3.24824 4339.08
3.25220 4114.58
3.25689 3843.87
3.26159 3573.31
3.26628 3307.37
3.27098 3049.81
3.27567 2803.57
3.28036 2570.87
3.28506 2353.16
3.28975 2151.28
3.29445 1965.49
3.29679 1878.60
3.29914 1795.63
3.30149 1716.52
3.30383 1641.17
3.30618 1569.47
3.30853 1501.34
3.31087 1436.59
3.31322 1375.13
3.31557 1316.82
3.31792 1261.53
3.32026 1209.11
3.32261 1159.43
3.32496 1112.35
3.32730 1067.77
3.32965 1025.50
3.33200 985.455
3.33434 947.500
3.33669 911.520
3.33904 877.405
3.34138 845.047
3.34608 785.211
3.35077 731.235
3.35547 682.460
3.36016 638.291
3.36485 598.208
3.36805 572.969
3.37125 549.286
3.37445 527.026
3.37765 506.093
3.38086 486.374
3.38406 467.791
3.38726 450.253
3.39046 433.686
3.39366 418.014
3.39686 403.184
3.40326 375.807
3.40966 351.136
3.41606 328.831
3.42075 313.803
3.42545 299.788
3.43014 286.696
3.43483 274.448
3.43953 262.973
3.44422 252.207
3.44892 242.092
3.45361 232.578
3.45830 223.616
3.46300 215.166
3.46769 207.187
3.47238 199.649
3.48177 185.760
3.49116 173.281
3.50055 162.025
3.50993 151.837
3.51932 142.587
3.52871 134.164
3.53810 126.470
3.54748 119.425
3.55687 112.957
3.56626 107.006
3.57479 101.997
3.58333 97.3352
3.59186 92.9884
3.60040 88.9285
3.60893 85.1304
3.61746 81.5721
3.62600 78.2336
3.63453 75.0972
3.64307 72.1467
3.65160 69.3683
3.66014 66.7487
3.66867 64.2761
3.67720 61.9397
3.68574 59.7298
3.70281 55.6543
3.71219 53.5902
3.72158 51.6402
3.74036 48.0507
3.75913 44.8278
3.77791 41.9232
3.79668 39.2963
3.81546 36.9130
3.83423 34.7439
3.85301 32.7643
3.87690 30.4852
3.90080 28.4414
3.92470 26.6020
3.94859 24.9413
3.97249 23.4364
3.99638 22.0675
4.02028 20.8181
4.04417 19.6749
4.06295 18.8436
4.08172 18.0661
4.10050 17.3378
4.11927 16.6546
4.13805 16.0129
4.15682 15.4095
4.17560 14.8414
4.19437 14.3059
4.21315 13.8005
4.23193 13.3230
4.26948 12.4442
4.30703 11.6552
4.34458 10.9444
4.38554 10.2464
4.42650 9.61883
4.46747 9.05266
4.50843 8.54023
4.54940 8.07513
4.59036 7.65231
4.63132 7.26712
4.67229 6.91420
4.71325 6.58977
4.75422 6.29140
4.79518 6.01663
4.83614 5.76313
4.87711 5.52886
4.91807 5.31200
4.95904 5.11101
5.00000 4.92459
5.04456 4.73663
5.08912 4.56254
5.13367 4.40118
5.17823 4.25151
5.22279 4.11253
5.26735 3.98334
5.31190 3.86315
5.35646 3.75123
5.44558 3.54974
5.53469 3.37447
5.62381 3.22186
5.71292 3.08898
5.81824 2.95416
5.92356 2.84041
6.02888 2.74523
6.13419 2.66663
6.23951 2.60318
6.34483 2.55464
6.45015 2.51815
6.55546 2.49424
6.68509 2.48200
6.78230 2.48520
6.87952 2.49882
6.97674 2.52515
7.07395 2.56442
7.17117 2.61798
7.26838 2.68771
7.36560 2.77618
7.41421 2.82845
7.46282 2.88675
7.53168 2.98086
7.60054 3.09037
7.66940 3.21782
7.73826 3.36639
7.80713 3.53981
7.84156 3.63720
7.87599 3.74280
7.91042 3.85770
7.94485 3.98296
7.97928 4.11966
8.01371 4.26902
8.05827 4.48363
8.10283 4.72590
8.14738 5.00063
8.16966 5.15197
8.19194 5.31372
8.21422 5.48687
8.23650 5.67250
8.25878 5.87179
8.28106 6.08610
8.30333 6.31695
8.32561 6.56602
8.34789 6.83525
8.37017 7.12684
8.39447 7.47352
8.41878 7.85388
8.44308 8.27258
8.46739 8.73507
8.49169 9.24766
8.51599 9.81782
8.54030 10.4545
8.56460 11.1684
8.58688 11.9019
8.60916 12.7237
8.62030 13.1722
8.63144 13.6485
8.64258 14.1551
8.65372 14.6945
8.66486 15.2699
8.67600 15.8843
8.68714 16.5415
8.69828 17.2455
8.70942 18.0010
8.72056 18.8133
8.73169 19.6881
8.74283 20.6324
8.75600 21.8485
8.76916 23.1871
8.78233 24.6657
8.79549 26.3050
8.80866 28.1301
8.82182 30.1707
8.82841 31.2830
8.83499 32.4633
8.84157 33.7175
8.84815 35.0522
8.85929 37.5152
8.86486 38.8537
8.87043 40.2708
8.87600 41.7739
8.88157 43.3698
8.88714 45.0667
8.89271 46.8734
8.89828 48.8008
8.90385 50.8598
8.90942 53.0634
8.91499 55.4256
8.92056 57.9636
8.92613 60.6951
8.93170 63.6422
8.93727 66.8278
8.94132 69.3107
8.94537 71.9464
8.94942 74.7477
8.95347 77.7282
8.95752 80.9051
8.96157 84.2951
8.96562 87.9172
8.96967 91.7912
8.97372 95.9422
8.97777 100.394
8.98183 105.175
8.98588 110.313
8.98993 115.844
8.99398 121.800
8.99803 128.222
9.00208 135.148
9.00765 145.582
9.01043 151.228
9.01322 157.180
9.01600 163.457
9.01879 170.075
9.02157 177.054
9.02436 184.407
9.02714 192.160
9.02993 200.330
9.03271 208.935
9.03550 217.994
9.03828 227.528
9.04107 237.555
9.04385 248.095
9.04664 259.161
9.04917 269.700
9.05170 280.706
9.05423 292.189
9.05676 304.156
9.05929 316.626
9.06183 329.599
9.06436 343.092
9.06689 357.101
9.06942 371.641
9.07195 386.709
9.07448 402.307
9.07702 418.425
9.07955 435.073
9.08208 452.232
9.08461 469.906
9.08714 488.070
9.09018 510.516
9.09322 533.618
9.09600 555.348
9.09879 577.572
9.10157 600.252
9.10436 623.335
9.10714 646.791
9.10993 670.550
9.11271 694.572
9.11550 718.778
9.11828 743.126
9.12107 767.521
9.12664 816.172
9.13221 864.094
9.13777 910.614
9.14350 956.196
9.14922 998.768
9.15645 1047.11
9.16369 1087.95
9.16961 1114.88
9.17553 1135.32
9.18145 1148.84
9.18737 1155.13
9.19000 1155.55
9.19461 1152.80
9.19921 1145.61
9.20382 1134.09
9.20842 1118.41
9.21213 1102.89
9.21584 1084.93
9.21955 1064.70
9.22326 1042.37
9.23068 992.114
9.23810 935.770
9.24223 902.426
9.24635 868.016
9.25460 797.095
9.26285 725.170
9.27110 654.167
9.27935 585.704
9.28759 521.041
9.29172 490.426
9.29584 461.079
9.29997 433.050
9.30409 406.380
9.30822 381.084
9.31234 357.176
9.31647 334.647
9.32059 313.480
9.32472 293.636
9.32884 275.083
9.33296 257.766
9.33709 241.640
9.34103 227.301
9.34496 213.940
9.34890 201.505
9.35284 189.941
9.35677 179.197
9.36071 169.218
9.36465 159.954
9.36858 151.355
9.37252 143.373
9.37646 135.964
9.38040 129.083
9.38433 122.691
9.38827 116.749
9.39221 111.222
9.39614 106.077
9.40008 101.284
9.40420 96.6072
9.40833 92.2557
9.41245 88.2002
9.41658 84.4177
9.42070 80.8835
9.42483 77.5786
9.42895 74.4826
9.43308 71.5796
9.43720 68.8529
9.44132 66.2896
9.44545 63.8755
9.44957 61.6003
9.45782 57.4228
9.46607 53.6839
9.47170 51.3537
9.47732 49.1826
9.48294 47.1553
9.48857 45.2595
9.49419 43.4833
9.49982 41.8169
9.50544 40.2509
9.51107 38.7772
9.51669 37.3882
9.52231 36.0777
9.53356 33.6685
9.54481 31.5080
9.55606 29.5627
9.56431 28.2561
9.57256 27.0404
9.58081 25.9071
9.58906 24.8489
9.59730 23.8591
9.60555 22.9319
9.61380 22.0621
9.62205 21.2450
9.63030 20.4763
9.63855 19.7523
9.64680 19.0695
9.65505 18.4248
9.67154 17.2390
9.68804 16.1752
9.70604 15.1349
9.72404 14.2031
9.74204 13.3651
9.76003 12.6088
9.77803 11.9240
9.79603 11.3018
9.81403 10.7350
9.83202 10.2170
9.85302 9.66712
9.87402 9.16898
9.89501 8.71627
9.91601 8.30370
9.93701 7.92671
9.95801 7.58146
9.97900 7.26454
10.0000 6.97304
10.0202 6.71481
10.0403 6.47577
10.0604 6.25404
10.0806 6.04806
10.1007 5.85641
10.1209 5.67784
10.1611 5.35539
10.2014 5.07290
10.2417 4.82434
10.2820 4.60490
10.3223 4.41060
10.3525 4.27930
10.3827 4.15908
10.4129 4.04881
10.4431 3.94758
10.5035 3.76900
10.5639 3.61779
10.6244 3.48966
10.6848 3.38130
10.7452 3.28995
10.8056 3.21282
10.8660 3.14796
10.9265 3.09410
10.9869 3.05012
11.0473 3.01498
11.1077 2.98782
11.1681 2.96793
11.2286 2.95473
11.2890 2.94773
11.3998 2.94972
11.5105 2.96944
11.6213 3.00571
11.7321 3.05794
11.8428 3.12597
11.9536 3.21009
12.0644 3.31097
12.1752 3.42974
12.2859 3.56794
12.3967 3.72762
12.5075 3.91143
12.6182 4.12274
12.6736 4.24000
12.7290 4.36578
12.7844 4.50084
12.8398 4.64592
12.8952 4.80197
12.9506 4.96994
13.0059 5.15103
13.0613 5.34649
13.1318 5.61846
13.2023 5.91947
13.2728 6.25318
13.3433 6.62470
13.4138 7.04117
13.4843 7.50992
13.5195 7.76650
13.5548 8.03944
13.5900 8.33032
13.6253 8.64059
13.6806 9.17199
13.7360 9.76402
13.7914 10.4264
13.8191 10.7874
13.8468 11.1707
13.8745 11.5781
13.9022 12.0114
13.9299 12.4733
13.9576 12.9661
13.9853 13.4929
14.0130 14.0566
14.0407 14.6609
14.0683 15.3097
14.1011 16.1401
14.1338 17.0478
14.1665 18.0430
14.1993 19.1377
14.2320 20.3465
14.2647 21.6859
14.2974 23.1754
14.3302 24.8379
14.3566 26.3271
14.3830 27.9650
14.4095 29.7737
14.4359 31.7765
14.4623 34.0043
14.4888 36.4908
14.5020 37.8448
14.5152 39.2794
14.5284 40.8036
14.5416 42.4225
14.5517 43.7262
14.5618 45.0947
14.5718 46.5323
14.5819 48.0440
14.5920 49.6349
14.5970 50.4627
14.6021 51.3109
14.6071 52.1836
14.6121 53.0783
14.6172 53.9993
14.6222 54.9439
14.6269 55.8562
14.6316 56.7907
14.6364 57.7502
14.6411 58.7355
14.6458 59.7477
14.6505 60.7877
14.6552 61.8566
14.6600 62.9554
14.6669 64.6256
14.6738 66.3642
14.6807 68.1779
14.6842 69.1142
14.6877 70.0710
14.6927 71.4998
14.6962 72.5124
14.6996 73.5448
14.7031 74.6007
14.7065 75.6807
14.7125 77.6064
14.7155 78.5984
14.7185 79.6106
14.7215 80.6436
14.7245 81.6979
14.7275 82.7741
14.7305 83.8729
14.7339 85.1773
14.7374 86.5101
14.7408 87.8762
14.7443 89.2768
14.7478 90.7130
14.7512 92.1861
14.7547 93.6974
14.7581 95.2484
14.7616 96.8451
14.7651 98.4798
14.7685 100.159
14.7720 101.883
14.7755 103.656
14.7789 105.478
14.7824 107.351
14.7858 109.278
14.7893 111.266
14.7928 113.306
14.7962 115.406
14.7997 117.569
14.8031 119.798
14.8066 122.095
14.8101 124.463
14.8135 126.905
14.8170 129.432
14.8205 132.033
14.8239 134.719
14.8274 137.494
14.8308 140.371
14.8343 143.336
14.8378 146.404
14.8412 149.579
14.8447 152.876
14.8482 156.283
14.8516 159.814
14.8551 163.476
14.8585 167.276
14.8620 171.222
14.8655 175.321
14.8689 179.582
14.8724 184.027
14.8758 188.641
14.8793 193.447
14.8828 198.455
14.8862 203.678
14.8897 209.130
14.8931 214.823
14.8966 220.773
14.9001 227.015
14.9035 233.529
14.9070 240.353
14.9105 247.505
14.9139 255.008
14.9174 262.884
14.9208 271.157
14.9243 279.855
14.9278 289.032
14.9312 298.665
14.9347 308.813
14.9381 319.510
14.9416 330.826
14.9451 342.735
14.9485 355.309
14.9520 368.594
14.9555 382.677
14.9589 397.525
14.9624 413.232
14.9658 429.850
14.9693 447.439
14.9728 466.056
14.9762 485.766
14.9797 506.634
14.9828 526.695
14.9860 547.825
14.9891 570.078
14.9923 593.434
14.9954 618.096
14.9986 644.052
15.0017 671.360
15.0049 699.986
15.0080 730.170
15.0112 761.884
15.0143 795.187
15.0175 830.023
15.0206 866.670
15.0237 904.951
15.0269 945.162
15.0300 987.099
15.0335 1035.65
15.0370 1086.43
15.0404 1139.61
15.0439 1195.25
15.0473 1253.38
15.0508 1314.02
15.0543 1377.19
15.0577 1442.89
15.0612 1511.32
15.0647 1582.05
15.0681 1655.24
15.0716 1730.83
15.0785 1888.95
15.0854 2055.64
15.0923 2230.10
15.0993 2410.46
15.1062 2595.58
15.1131 2782.98
15.1270 3156.54
15.1339 3337.37
15.1408 3510.68
15.1480 3680.69
15.1553 3836.07
15.1625 3974.07
15.1697 4091.88
15.1773 4191.20
15.1849 4263.26
15.1924 4306.35
15.2000 4319.45
15.2028 4316.70
15.2072 4303.70
15.2117 4280.24
15.2162 4246.52
15.2207 4202.83
15.2252 4149.55
15.2296 4087.11
15.2341 4016.02
15.2386 3937.06
15.2446 3818.91
15.2506 3689.17
15.2567 3549.15
15.2627 3401.13
15.2740 3106.16
15.2854 2800.46
15.2968 2494.77
15.3081 2199.00
15.3138 2057.01
15.3195 1920.03
15.3251 1788.67
15.3308 1663.60
15.3365 1544.71
15.3422 1432.43
15.3479 1326.89
15.3535 1228.27
15.3592 1136.14
15.3649 1050.70
15.3706 971.439
15.3762 898.395
15.3824 825.137
15.3886 758.495
15.3917 727.426
15.3948 697.823
15.3979 669.631
15.4010 642.878
15.4041 617.336
15.4072 593.039
15.4134 548.031
15.4196 507.350
15.4258 470.596
15.4315 440.001
15.4371 412.119
15.4428 386.697
15.4485 363.539
15.4542 342.346
15.4598 322.964
15.4655 305.214
15.4712 288.959
15.4769 273.997
15.4826 260.226
15.4882 247.526
15.4939 235.813
15.4996 224.951
15.5053 214.893
15.5109 205.529
15.5166 196.827
15.5223 188.694
15.5280 181.095
15.5336 173.982
15.5393 167.323
15.5450 161.058
15.5507 155.165
15.5564 149.613
15.5620 144.385
15.5734 134.758
15.5847 126.132
15.5961 118.360
15.6074 111.328
15.6167 106.058
15.6260 101.175
15.6353 96.6427
15.6446 92.4262
15.6539 88.4963
15.6632 84.8268
15.6725 81.3948
15.6818 78.1796
15.6910 75.1630
15.7003 72.3286
15.7096 69.6619
15.7189 67.1496
15.7282 64.7798
15.7375 62.5419
15.7561 58.4239
15.7674 56.1178
15.7788 53.9579
15.7901 51.9286
15.8015 50.0228
15.8129 48.2277
15.8242 46.5378
15.8469 43.4383
15.8696 40.6676
15.8923 38.1823
15.9150 35.9451
15.9377 33.9255
15.9522 32.7398
15.9666 31.6259
15.9955 29.5904
16.0244 27.7811
16.0533 26.1671
16.0822 24.7227
16.1111 23.4264
16.1400 22.2601
16.1689 21.2085
16.1917 20.4543
16.2144 19.7577
16.2371 19.1140
16.2598 18.5193
16.2825 17.9694
16.3052 17.4613
16.3279 16.9920
16.3506 16.5592
16.3960 15.7929
16.4414 15.1478
16.4869 14.6121
16.5323 14.1780
16.5736 13.8671
16.6148 13.6345
16.6561 13.4810
16.6974 13.4102
16.7325 13.4201
16.7676 13.5015
16.8027 13.6641
16.8378 13.9220
16.8553 14.0929
16.8729 14.2961
16.8904 14.5355
16.9080 14.8161
16.9255 15.1442
16.9431 15.5273
16.9606 15.9750
16.9782 16.4990
16.9957 17.1154
17.0133 17.8445
17.0221 18.2597
17.0308 18.7135
17.0396 19.2114
17.0484 19.7592
17.0571 20.3648
17.0659 21.0349
17.0747 21.7810
17.0835 22.6133
17.0922 23.5478
17.1010 24.5992
17.1098 25.7885
17.1186 27.1394
17.1242 28.1137
17.1299 29.1762
17.1356 30.3364
17.1413 31.6027
17.1469 32.9910
17.1526 34.5118
17.1583 36.1788
17.1640 38.0034
17.1697 40.0078
17.1753 42.2057
17.1810 44.6146
17.1867 47.2482
17.1924 50.1346
17.1980 53.2831
17.2037 56.7242
17.2094 60.4648
17.2156 64.9265
17.2218 69.7900
17.2280 75.0826
17.2342 80.8218
17.2404 87.0314
17.2465 93.7000
17.2527 100.840
17.2589 108.448
17.2646 115.830
17.2703 123.581
17.2760 131.680
17.2816 140.083
17.2873 148.783
17.2930 157.725
17.2987 166.859
17.3043 176.111
17.3116 188.003
17.3188 199.851
17.3260 211.532
17.3332 222.847
17.3394 232.139
17.3500 246.850
17.3553 253.498
17.3606 259.589
17.3679 266.888
17.3751 272.914
17.3807 276.630
17.3862 279.479
17.3918 281.433
17.3974 282.470
17.4000 282.639
17.4066 282.170
17.4131 280.441
17.4197 277.489
17.4263 273.373
17.4344 266.736
17.4426 258.610
17.4507 249.203
17.4589 238.759
17.4682 225.933
17.4775 212.485
17.4868 198.797
17.4961 185.244
17.5054 172.111
17.5146 159.724
17.5239 148.301
17.5286 143.005
17.5332 138.023
17.5379 133.349
17.5425 129.014
17.5472 125.005
17.5518 121.345
17.5565 118.018
17.5611 115.037
17.5657 112.385
17.5704 110.067
17.5755 107.897
17.5805 106.094
17.5852 104.743
17.5898 103.669
17.5945 102.852
17.5991 102.275
17.6084 101.757
17.6177 101.946
17.6270 102.661
17.6363 103.716
17.6455 104.929
17.6548 106.122
17.6608 106.805
17.6680 107.468
17.6752 107.904
17.6824 108.059
17.6896 107.893
17.7000 107.013
17.7079 105.821
17.7157 104.166
17.7236 102.057
17.7314 99.5189
17.7403 96.1957
17.7491 92.4401
17.7579 88.3248
17.7667 83.9336
17.7861 73.6938
17.8056 63.4452
17.8127 59.8670
17.8198 56.4161
17.8268 53.1154
17.8339 49.9870
17.8410 47.0352
17.8481 44.2730
17.8552 41.7047
17.8622 39.3342
17.8689 37.2823
17.8755 35.3978
17.8821 33.6690
17.8888 32.0938
17.8954 30.6593
17.9020 29.3607
17.9087 28.1849
17.9153 27.1261
17.9219 26.1715
17.9286 25.3150
17.9352 24.5452
17.9418 23.8562
17.9485 23.2379
17.9551 22.6852
17.9618 22.1897
17.9684 21.7468
17.9772 21.2272
17.9861 20.7788
17.9949 20.3918
18.0038 20.0582
18.0126 19.7701
18.0215 19.5218
18.0392 19.1256
18.0569 18.8373
18.0746 18.6350
18.0922 18.5026
18.1099 18.4284
18.1294 18.4042
18.1489 18.4322
18.1683 18.5062
18.1878 18.6218
18.2267 18.9656
18.2656 19.4462
18.3046 20.0560
18.3435 20.7928
18.3824 21.6598
18.4213 22.6637
18.4585 23.7600
18.4957 25.0041
18.5328 26.4122
18.5700 28.0043
18.6071 29.8063
18.6257 30.7953
18.6443 31.8481
18.6629 32.9711
18.6814 34.1691
18.7000 35.4485
18.7186 36.8154
18.7319 37.8506
18.7451 38.9380
18.7584 40.0809
18.7717 41.2831
18.7849 42.5485
18.7916 43.2067
18.7982 43.8815
18.8048 44.5753
18.8115 45.2869
18.8181 46.0189
18.8247 46.7698
18.8309 47.4908
18.8371 48.2294
18.8433 48.9873
18.8495 49.7653
18.8557 50.5653
18.8619 51.3854
18.8681 52.2279
18.8743 53.0933
18.8814 54.1125
18.8884 55.1642
18.8955 56.2499
18.9026 57.3693
18.9070 58.0894
18.9114 58.8227
18.9159 59.5729
18.9203 60.3371
18.9252 61.1977
18.9300 62.0766
18.9349 62.9780
18.9398 63.8988
18.9446 64.8437
18.9495 65.8093
18.9544 66.8004
18.9592 67.8138
18.9654 69.1429
18.9716 70.5123
18.9778 71.9282
18.9840 73.3880
18.9889 74.5702
18.9937 75.7807
18.9986 77.0257
19.0035 78.3011
19.0083 79.6135
19.0132 80.9585
19.0181 82.3432
19.0229 83.7632
19.0278 85.2258
19.0327 86.7296
19.0375 88.2763
19.0424 89.8641
19.0473 91.5015
19.0521 93.1834
19.0570 94.9188
19.0618 96.7026
19.0667 98.5442
19.0716 100.439
19.0764 102.396
19.0813 104.410
19.0862 106.493
19.0910 108.638
19.0959 110.852
19.1008 113.140
19.1052 115.292
19.1096 117.504
19.1140 119.791
19.1185 122.143
19.1229 124.576
19.1273 127.082
19.1317 129.669
19.1361 132.341
19.1406 135.109
19.1450 137.964
19.1494 140.924
19.1538 143.980
19.1583 147.151
19.1627 150.428
19.1671 153.824
19.1715 157.345
19.1764 161.378
19.1813 165.580
19.1861 169.962
19.1910 174.525
19.1959 179.300
19.2007 184.281
19.2056 189.501
19.2105 194.956
19.2153 200.683
19.2202 206.679
19.2251 212.986
19.2299 219.601
19.2348 226.575
19.2397 233.905
19.2445 241.649
19.2494 249.806
19.2543 258.445
19.2591 267.586
19.2640 277.270
19.2689 287.520
19.2737 298.427
19.2786 309.999
19.2835 322.344
19.2883 335.474
19.2932 349.513
19.2980 364.479
19.3029 380.518
19.3078 397.653
19.3126 416.053
19.3175 435.746
19.3224 456.930
19.3272 479.638
19.3325 506.395
19.3379 535.362
19.3432 566.736
19.3485 600.726
19.3538 637.553
19.3591 677.450
19.3644 720.663
19.3697 767.352
19.3746 813.611
19.3794 863.297
19.3843 916.618
19.3892 973.663
19.3940 1034.87
19.3989 1100.20
19.4038 1170.10
19.4086 1244.47
19.4135 1323.80
19.4184 1407.90
19.4232 1497.26
19.4281 1591.60
19.4330 1691.40
19.4378 1796.28
19.4427 1906.68
19.4476 2022.11
19.4524 2142.95
19.4573 2268.82
19.4622 2399.55
19.4670 2534.60
19.4719 2674.21
19.4768 2817.44
19.4865 3114.17
19.4962 3420.58
19.5059 3731.55
19.5157 4041.10
19.5254 4342.55
19.5360 4653.97
19.5466 4937.53
19.5549 5133.73
19.5632 5303.45
19.5715 5443.05
19.5798 5549.44
19.5848 5597.14
19.5899 5631.02
19.5949 5650.90
19.6000 5656.61
19.6029 5653.48
19.6076 5638.46
19.6123 5611.34
19.6170 5572.30
19.6217 5521.63
19.6264 5459.56
19.6311 5386.82
19.6405 5211.11
19.6482 5040.76
19.6559 4849.73
19.6635 4640.88
19.6712 4418.25
19.6788 4186.99
19.6864 3948.82
19.7016 3464.75
19.7182 2947.67
19.7265 2700.93
19.7347 2465.51
19.7423 2260.62
19.7499 2067.48
19.7575 1886.71
19.7651 1718.68
19.7727 1563.45
19.7765 1490.60
19.7803 1420.88
19.7841 1354.24
19.7879 1290.62
19.7917 1229.95
19.7955 1172.17
19.7993 1117.19
19.8031 1064.92
19.8069 1015.27
19.8107 968.165
19.8145 923.494
19.8183 881.165
19.8221 841.079
19.8259 803.140
19.8297 767.250
19.8335 733.313
19.8373 701.234
19.8411 670.920
19.8449 642.280
19.8487 615.226
19.8525 589.672
19.8563 565.598
19.8619 532.839
19.8674 502.681
19.8729 474.906
19.8784 449.354
19.8840 425.745
19.8895 403.989
19.8950 383.848
19.9005 365.246
19.9061 347.984
19.9116 331.972
19.9171 317.098
19.9226 303.286
19.9282 290.394
19.9337 278.386
19.9392 267.142
19.9447 256.636
19.9517 244.403
19.9586 233.092
19.9655 222.610
19.9724 212.887
19.9793 203.823
19.9862 195.369
19.9931 187.468
20.0000 180.080
20.0076 172.452
20.0152 165.329
20.0229 158.666
20.0305 152.430
20.0381 146.567
20.0457 141.054
20.0533 135.863
20.0609 130.974
20.0762 121.980
20.0914 113.925
20.1067 106.670
20.1219 100.117
20.1339 95.3969
20.1458 91.0150
20.1578 86.9387
20.1698 83.1397
20.1817 79.5928
20.1937 76.2756
20.2057 73.1684
20.2176 70.2535
20.2296 67.5150
20.2416 64.9388
20.2536 62.5122
20.2655 60.2235
20.2775 58.0625
20.2895 56.0197
20.3134 52.2565
20.3373 48.8713
20.3613 45.8158
20.3852 43.0483
20.4092 40.5336
20.4331 38.2415
20.4570 36.1466
20.4810 34.2267
20.5049 32.4634
20.5278 30.9091
20.5506 29.4699
20.5735 28.1339
20.5963 26.8914
20.6192 25.7337
20.6420 24.6533
20.6649 23.6435
20.6877 22.6984
20.7106 21.8125
20.7334 20.9810
20.7563 20.1998
20.7791 19.4647
20.8020 18.7723
20.8248 18.1195
20.8705 16.9208
20.9184 15.8000
20.9663 14.7985
21.0142 13.9002
21.0620 13.0918
21.1099 12.3618
21.1578 11.7009
21.2057 11.1010
21.2535 10.5552
21.2927 10.1447
21.3319 9.76374
21.3711 9.40979
21.4102 9.08043
21.4494 8.77344
21.4886 8.48706
21.5278 8.21961
21.5669 7.96973
21.6453 7.51793
21.7236 7.12328
21.8020 6.77855
21.8803 6.47800
21.9282 6.31396
21.9761 6.16370
22.0239 6.02642
22.0718 5.90144
22.1676 5.68607
22.2633 5.51385
22.3591 5.38228
22.4548 5.29011
22.5506 5.23724
22.6464 5.22487
22.7247 5.24669
22.8030 5.29967
22.8814 5.38713
22.9597 5.51348
22.9989 5.59302
23.0381 5.68458
23.0773 5.78922
23.1164 5.90821
23.1556 6.04313
23.1948 6.19573
23.2339 6.36812
23.2731 6.56268
23.3210 6.83467
23.3689 7.14997
23.4168 7.51610
23.4407 7.72110
23.4646 7.94251
23.4886 8.18191
23.5125 8.44106
23.5365 8.72196
23.5604 9.02687
23.5843 9.35841
23.6083 9.71955
23.6322 10.1138
23.6561 10.5448
23.6801 11.0177
23.7040 11.5378
23.7280 12.1112
23.7519 12.7454
23.7758 13.4493
23.7998 14.2332
23.8237 15.1098
23.8477 16.0937
23.8596 16.6320
23.8716 17.2045
23.8836 17.8142
23.8955 18.4645
23.9075 19.1592
23.9195 19.9024
23.9314 20.6990
23.9434 21.5544
23.9554 22.4746
23.9674 23.4667
23.9793 24.5388
23.9913 25.7001
24.0033 26.9615
24.0152 28.3355
24.0272 29.8368
24.0392 31.4817
24.0522 33.4679
24.0653 35.6846
24.0783 38.1726
24.0849 39.5337
24.0914 40.9804
24.0979 42.5253
24.1045 44.1758
24.1110 45.9424
24.1175 47.8371
24.1240 49.8734
24.1306 52.0662
24.1371 54.4327
24.1436 56.9880
24.1496 59.5234
24.1556 62.2530
24.1616 65.2065
24.1676 68.3970
24.1736 71.8603
24.1795 75.6129
24.1855 79.6980
24.1915 84.1355
24.1975 88.9772
24.2035 94.2471
24.2095 100.006
24.2154 106.282
24.2214 113.147
24.2244 116.806
24.2274 120.630
24.2304 124.640
24.2334 128.815
24.2364 133.178
24.2394 137.735
24.2435 144.298
24.2476 151.244
24.2516 158.608
24.2557 166.413
24.2598 174.680
24.2639 183.431
24.2680 192.688
24.2720 202.473
24.2761 212.807
24.2802 223.711
24.2843 235.206
24.2884 247.312
24.2924 260.046
24.2965 273.427
24.3006 287.470
24.3047 302.190
24.3074 312.384
24.3101 322.888
24.3128 333.704
24.3156 344.834
24.3183 356.278
24.3210 368.040
24.3264 392.512
24.3294 406.548
24.3324 420.916
24.3354 435.660
24.3384 450.775
24.3444 482.147
24.3504 514.868
24.3564 548.964
24.3623 584.220
24.3683 620.627
24.3743 657.916
24.3803 696.040
24.3863 734.681
24.3923 773.752
24.3983 812.890
24.4102 890.612
24.4222 965.612
24.4342 1035.76
24.4461 1098.53
24.4556 1141.53
24.4651 1177.54
24.4725 1200.23
24.4799 1217.80
24.4872 1229.98
24.4946 1236.59
24.5000 1237.84
24.5054 1236.07
24.5108 1231.31
24.5188 1218.62
24.5269 1199.54
24.5349 1174.39
24.5430 1143.63
24.5506 1110.11
24.5581 1072.66
24.5657 1031.80
24.5733 988.083
24.5808 942.113
24.5884 894.475
24.5959 845.746
24.6035 796.484
24.6186 698.406
24.6337 603.949
24.6409 560.924
24.6482 519.601
24.6554 480.166
24.6626 442.812
24.6698 407.535
24.6770 374.445
24.6843 343.566
24.6915 314.926
24.6990 287.210
24.7028 274.221
24.7066 261.795
24.7104 249.922
24.7141 238.588
24.7179 227.777
24.7217 217.476
24.7255 207.668
24.7293 198.338
24.7330 189.467
24.7368 181.040
24.7406 173.039
24.7444 165.448
24.7482 158.248
24.7519 151.423
24.7574 142.129
24.7629 133.541
24.7684 125.613
24.7739 118.295
24.7794 111.543
24.7849 105.312
24.7904 99.5638
24.7959 94.2673
24.8014 89.3677
24.8069 84.8414
24.8124 80.6570
24.8179 76.7923
24.8234 73.2064
24.8289 69.8822
24.8344 66.7969
24.8399 63.9349
24.8475 60.3154
24.8550 57.0287
24.8626 54.0362
24.8702 51.3040
24.8777 48.8025
24.8853 46.5058
24.8928 44.3914
24.9004 42.4397
24.9080 40.6334
24.9155 38.9576
24.9231 37.3992
24.9306 35.9468
24.9382 34.5901
24.9458 33.3205
24.9533 32.1300
24.9609 31.0132
24.9691 29.8681
24.9774 28.7948
24.9856 27.7869
24.9939 26.8400
25.0104 25.1046
25.0268 23.5573
25.0433 22.1691
25.0598 20.9196
25.0763 19.7891
25.0928 18.7638
25.1079 17.9044
25.1231 17.1138
25.1382 16.3845
25.1533 15.7103
25.1684 15.0858
25.1835 14.5062
25.1987 13.9673
25.2138 13.4656
25.2289 12.9973
25.2440 12.5597
25.2591 12.1503
25.2743 11.7667
25.3045 11.0690
25.3347 10.4524
25.3540 10.0965
25.3732 9.76630
25.3925 9.45917
25.4117 9.17343
25.4310 8.90701
25.4502 8.65858
25.4887 8.20968
25.5272 7.81663
25.5657 7.47154
25.6041 7.16783
25.6426 6.90024
25.6729 6.71233
25.7031 6.54215
25.7333 6.38814
25.7636 6.24894
25.7938 6.12337
25.8241 6.01037
25.8845 5.81862
25.9450 5.66767
26.0055 5.55309
26.0660 5.47164
26.1264 5.42114
26.1704 5.40307
26.2309 5.40353
26.2914 5.43363
26.3519 5.49468
26.4123 5.58918
26.4728 5.72118
26.5031 5.80303
26.5333 5.89672
26.5635 6.00346
26.5938 6.12473
26.6240 6.26232
26.6543 6.41842
26.6900 6.63074
26.7257 6.87887
26.7615 7.17073
26.7793 7.33629
26.7972 7.51711
26.8151 7.71520
26.8330 7.93296
26.8508 8.17328
26.8687 8.43970
26.8866 8.73657
26.9044 9.06936
26.9223 9.44502
26.9402 9.87230
26.9580 10.3635
26.9670 10.6379
26.9759 10.9342
26.9848 11.2559
26.9938 11.6058
27.0027 11.9884
27.0116 12.4076
27.0206 12.8696
27.0295 13.3797
27.0385 13.9465
27.0474 14.5772
27.0563 15.2833
27.0653 16.0747
27.0742 16.9655
27.0831 17.9706
27.0893 18.7434
27.0955 19.5843
27.1017 20.5027
27.1079 21.5029
27.1140 22.5960
27.1202 23.7867
27.1264 25.0875
27.1326 26.5034
27.1388 28.0483
27.1450 29.7270
27.1512 31.5549
27.1573 33.5361
27.1635 35.6870
27.1697 38.0104
27.1759 40.5232
27.1821 43.2262
27.1896 46.8135
27.1972 50.7117
27.2048 54.9354
27.2123 59.4913
27.2199 64.3818
27.2274 69.6047
27.2350 75.1523
27.2426 81.0110
27.2543 90.6337
27.2659 100.834
27.2776 111.474
27.2893 122.365
27.2969 129.445
27.3044 136.471
27.3120 143.370
27.3195 150.059
27.3291 158.170
27.3388 165.674
27.3504 173.689
27.3562 177.206
27.3619 180.351
27.3692 183.721
27.3764 186.439
27.3823 188.155
27.3882 189.394
27.3941 190.150
27.4000 190.415
27.4072 190.070
27.4144 188.995
27.4217 187.206
27.4289 184.728
27.4358 181.751
27.4427 178.215
27.4496 174.160
27.4564 169.635
27.4631 164.893
27.4697 159.812
27.4829 148.848
27.4986 134.966
27.5142 120.708
27.5274 108.784
27.5407 97.3245
27.5473 91.8380
27.5539 86.5496
27.5605 81.4790
27.5671 76.6487
27.5756 70.8438
27.5840 65.4574
27.5924 60.4896
27.6008 55.9396
27.6092 51.8006
27.6177 48.0604
27.6219 46.3347
27.6261 44.7023
27.6303 43.1607
27.6345 41.7070
27.6405 39.7760
27.6465 38.0110
27.6526 36.4037
27.6586 34.9478
27.6646 33.6302
27.6706 32.4471
27.6766 31.3867
27.6826 30.4450
27.6887 29.6118
27.6947 28.8834
27.7007 28.2514
27.7067 27.7123
27.7127 27.2595
27.7187 26.8902
27.7247 26.5996
27.7308 26.3857
27.7374 26.2353
27.7440 26.1722
27.7506 26.1950
27.7572 26.3031
27.7638 26.4975
27.7705 26.7796
27.7771 27.1519
27.7837 27.6169
27.7903 28.1804
27.7969 28.8469
27.8036 29.6225
27.8102 30.5128
27.8168 31.5280
27.8234 32.6754
27.8300 33.9641
27.8366 35.4015
27.8421 36.6996
27.8475 38.1086
27.8529 39.6398
27.8583 41.2932
27.8637 43.0808
27.8691 45.0017
27.8745 47.0645
27.8799 49.2744
27.8854 51.6407
27.8908 54.1589
27.8962 56.8420
27.9016 59.6829
27.9070 62.6944
27.9124 65.8662
27.9178 69.2040
27.9233 72.7065
27.9299 77.2127
27.9365 81.9544
27.9431 86.9206
27.9497 92.0891
27.9563 97.4573
27.9630 102.995
27.9696 108.678
27.9762 114.466
27.9858 123.032
27.9954 131.645
28.0051 140.193
28.0147 148.518
28.0255 157.453
28.0364 165.720
28.0478 173.532
28.0593 180.123
28.0665 183.556
28.0738 186.384
28.0843 189.357
28.0948 190.907
28.1000 191.134
28.1066 190.902
28.1131 190.100
28.1197 188.739
28.1263 186.835
28.1329 184.368
28.1396 181.397
28.1462 177.945
28.1529 174.062
28.1648 166.127
28.1768 157.182
28.1865 149.297
28.1963 141.085
28.2061 132.679
28.2159 124.240
28.2278 114.051
28.2397 104.209
28.2517 94.8747
28.2636 86.1781
28.2745 78.8973
28.2799 75.4959
28.2853 72.2580
28.2908 69.1852
28.2962 66.2775
28.3016 63.5341
28.3071 60.9531
28.3125 58.5317
28.3179 56.2663
28.3234 54.1527
28.3288 52.1860
28.3342 50.3610
28.3396 48.6721
28.3451 47.1135
28.3505 45.6816
28.3592 43.6287
28.3679 41.8530
28.3766 40.3297
28.3852 39.0362
28.3939 37.9470
28.4026 37.0434
28.4113 36.3039
28.4200 35.7127
28.4319 35.1109
28.4439 34.7228
28.4558 34.5178
28.4678 34.4715
28.4797 34.5639
28.4917 34.7789
28.5036 35.1047
28.5155 35.5311
28.5275 36.0520
28.5394 36.6617
28.5514 37.3581
28.5633 38.1384
28.5753 39.0034
28.5872 39.9527
28.5992 40.9886
28.6111 42.1140
28.6241 43.4485
28.6372 44.8999
28.6502 46.4757
28.6567 47.3136
28.6632 48.1846
28.6697 49.0929
28.6762 50.0371
28.6828 51.0216
28.6893 52.0452
28.6958 53.1127
28.7023 54.2230
28.7088 55.3814
28.7153 56.5868
28.7208 57.6312
28.7262 58.7126
28.7316 59.8328
28.7371 60.9934
28.7425 62.1962
28.7479 63.4433
28.7533 64.7367
28.7588 66.0788
28.7648 67.6159
28.7707 69.2155
28.7767 70.8840
28.7827 72.6253
28.7859 73.6085
28.7892 74.6155
28.7924 75.6470
28.7957 76.7007
28.7987 77.6931
28.8017 78.7048
28.8047 79.7435
28.8076 80.8028
28.8106 81.8907
28.8136 83.0007
28.8166 84.1412
28.8196 85.3055
28.8226 86.5022
28.8256 87.7286
28.8285 88.9857
28.8315 90.2702
28.8345 91.5918
28.8375 92.9430
28.8405 94.3340
28.8435 95.7570
28.8465 97.2227
28.8494 98.7279
28.8524 100.274
28.8554 101.858
28.8584 103.491
28.8614 105.165
28.8644 106.892
28.8674 108.663
28.8712 111.003
28.8750 113.425
28.8788 115.941
28.8826 118.554
28.8864 121.272
28.8902 124.099
28.8940 127.042
28.8978 130.106
28.9008 132.608
28.9037 135.194
28.9067 137.867
28.9097 140.622
28.9127 143.481
28.9157 146.430
28.9187 149.493
28.9217 152.655
28.9246 155.942
28.9276 159.348
28.9306 162.880
28.9336 166.530
28.9366 170.330
28.9396 174.260
28.9426 178.353
28.9455 182.589
28.9485 187.003
28.9515 191.590
28.9545 196.357
28.9575 201.296
28.9605 206.449
28.9635 211.790
28.9665 217.364
28.9694 223.145
28.9724 229.180
28.9754 235.440
28.9784 241.977
28.9814 248.761
28.9844 255.847
28.9873 263.201
28.9903 270.884
28.9933 278.858
28.9963 287.189
28.9993 295.866
29.0023 304.902
29.0053 314.279
29.0083 324.076
29.0112 334.242
29.0142 344.861
29.0172 355.877
29.0202 367.381
29.0232 379.352
29.0262 391.807
29.0292 404.720
29.0321 418.192
29.0351 432.153
29.0381 446.711
29.0411 461.788
29.0441 477.501
29.0471 493.819
29.0501 510.758
29.0530 528.275
29.0560 546.506
29.0590 565.344
29.0650 605.155
29.0710 647.907
29.0769 693.572
29.0829 742.322
29.0889 794.247
29.0949 849.516
29.1008 907.997
29.1068 969.809
29.1128 1034.96
29.1187 1103.54
29.1247 1175.26
29.1307 1250.15
29.1367 1328.09
29.1418 1397.78
29.1470 1469.49
29.1573 1618.22
29.1676 1772.91
29.1779 1931.72
29.2018 2302.89
29.2137 2482.21
29.2257 2651.12
29.2376 2805.09
29.2496 2939.60
29.2579 3019.34
29.2661 3086.46
29.2744 3139.92
29.2827 3178.86
29.2914 3203.33
29.3000 3210.91
29.3058 3206.49
29.3152 3183.19
29.3246 3140.45
29.3339 3079.08
29.3433 3000.47
29.3521 2912.51
29.3609 2812.26
29.3697 2701.39
29.3785 2581.68
29.3874 2453.67
29.3962 2320.58
29.4140 2046.24
29.4317 1772.37
29.4406 1639.34
29.4495 1510.54
29.4567 1408.96
29.4640 1311.31
29.4712 1217.95
29.4785 1129.15
29.4858 1045.08
29.4930 965.868
29.5003 891.552
29.5075 822.115
29.5120 782.026
29.5164 743.712
29.5209 707.142
29.5253 672.359
29.5297 639.164
29.5342 607.664
29.5386 577.669
29.5430 549.266
29.5475 522.275
29.5519 496.762
29.5563 472.560
29.5608 449.721
29.5652 428.086
29.5696 407.698
29.5741 388.409
29.5785 370.252
29.5833 351.592
29.5882 334.096
29.5930 317.698
29.5979 302.332
29.6027 287.936
29.6075 274.450
29.6124 261.817
29.6172 249.981
29.6221 238.891
29.6269 228.497
29.6317 218.751
29.6366 209.610
29.6414 201.033
29.6463 192.979
29.6511 185.412
29.6559 178.313
29.6648 166.334
29.6737 155.606
29.6826 145.949
29.6914 137.249
29.7003 129.368
29.7092 122.221
29.7181 115.711
29.7269 109.763
29.7358 104.304
29.7447 99.2902
29.7535 94.6666
29.7624 90.3909
29.7713 86.4222
29.7802 82.7375
29.7890 79.3046
29.7979 76.0993
29.8068 73.0972
29.8157 70.2863
29.8245 67.6468
29.8334 65.1640
29.8423 62.8224
29.8511 60.6158
29.8689 56.5589
29.8866 52.9177
29.9044 49.6385
29.9221 46.6714
29.9399 43.9766
29.9544 41.9501
29.9689 40.0679
29.9834 38.3161
29.9979 36.6828
30.0125 35.1571
30.0270 33.7296
30.0415 32.3918
30.0560 31.1371
30.0705 29.9569
30.0850 28.8461
30.0996 27.7992
30.1141 26.8121
30.1431 24.9963
30.1721 23.3693
30.1899 22.4560
30.2076 21.5990
30.2254 20.7928
30.2431 20.0342
30.2609 19.3187
30.2786 18.6439
30.3141 17.4031
30.3496 16.2909
30.3851 15.2901
30.4206 14.3863
30.4561 13.5673
30.4803 13.0522
30.5045 12.5689
30.5287 12.1149
30.5529 11.6880
30.5771 11.2858
30.6013 10.9066
30.6496 10.2107
30.6980 9.58777
30.7464 9.02827
30.7948 8.52368
30.8432 8.06740
30.8787 7.76003
30.9142 7.47351
30.9497 7.20607
30.9852 6.95612
31.0207 6.72224
31.0562 6.50315
31.1271 6.10482
31.1981 5.75317
31.2691 5.44169
31.3401 5.16500
31.4111 4.91868
31.4627 4.75640
31.5143 4.60700
31.5659 4.46939
31.6175 4.34265
31.6692 4.22596
31.7208 4.11851
31.8240 3.92836
31.9273 3.76724
32.0305 3.63185
32.1338 3.51951
32.2370 3.42800
32.3015 3.38059
32.3661 3.34028
32.4951 3.27991
32.6242 3.24528
32.7532 3.23557
32.8758 3.24935
32.9984 3.28611
33.1210 3.34703
33.1823 3.38712
33.2436 3.43404
33.3049 3.48814
33.3662 3.54985
33.4275 3.61962
33.4888 3.69797
33.5501 3.78554
33.6114 3.88320
33.6727 3.99196
33.7340 4.11293
33.8050 4.26983
33.8760 4.44679
33.9469 4.64634
34.0179 4.87155
34.0889 5.12609
34.1599 5.41441
34.2309 5.74189
34.2664 5.92231
34.3018 6.11504
34.3599 6.46003
34.4180 6.84628
34.4761 7.28032
34.5341 7.76966
34.5632 8.03799
34.5922 8.32383
34.6213 8.62873
34.6503 8.95428
34.6793 9.30263
34.7084 9.67582
34.7374 10.0763
34.7664 10.5065
34.8019 11.0776
34.8374 11.7044
34.8729 12.3941
34.9084 13.1556
34.9439 13.9990
34.9794 14.9366
35.0149 15.9830
35.0326 16.5523
35.0503 17.1556
35.0673 17.7661
35.0842 18.4128
35.1012 19.0989
35.1181 19.8276
35.1350 20.6025
35.1520 21.4276
35.1689 22.3076
35.1859 23.2469
35.2028 24.2523
35.2197 25.3296
35.2367 26.4862
35.2536 27.7301
35.2706 29.0708
35.2875 30.5188
35.3044 32.0866
35.3214 33.7871
35.3359 35.3644
35.3504 37.0639
35.3649 38.8993
35.3722 39.8728
35.3794 40.8849
35.3867 41.9409
35.3940 43.0419
35.4012 44.1906
35.4085 45.3902
35.4157 46.6438
35.4230 47.9550
35.4303 49.3278
35.4375 50.7642
35.4432 51.9321
35.4488 53.1450
35.4545 54.4054
35.4601 55.7139
35.4657 57.0779
35.4714 58.4960
35.4770 59.9766
35.4827 61.5182
35.4859 62.4313
35.4891 63.3674
35.4924 64.3274
35.4956 65.3091
35.4988 66.3196
35.5020 67.3535
35.5053 68.4184
35.5085 69.5087
35.5133 71.2040
35.5182 72.9709
35.5226 74.6584
35.5270 76.4136
35.5315 78.2405
35.5359 80.1388
35.5404 82.1217
35.5448 84.1852
35.5492 86.3438
35.5537 88.5934
35.5585 91.1676
35.5633 93.8717
35.5682 96.7147
35.5730 99.7064
35.5775 102.591
35.5819 105.617
35.5863 108.796
35.5908 112.130
35.5952 115.643
35.5996 119.332
35.6041 123.225
35.6085 127.317
35.6129 131.642
35.6174 136.193
35.6218 141.007
35.6262 146.079
35.6307 151.449
35.6351 157.111
35.6396 163.110
35.6440 169.439
35.6484 176.149
35.6529 183.247
35.6573 190.759
35.6617 198.690
35.6662 207.102
35.6706 216.004
35.6751 225.424
35.6795 235.369
35.6839 245.912
35.6884 257.038
35.6928 268.828
35.6972 281.261
35.7017 294.426
35.7061 308.298
35.7105 322.972
35.7150 338.419
35.7194 354.740
35.7238 371.937
35.7283 390.045
35.7327 409.052
35.7372 429.078
35.7416 450.064
35.7460 472.136
35.7505 495.224
35.7549 519.461
35.7593 544.821
35.7638 571.327
35.7682 598.937
35.7726 627.793
35.7771 657.781
35.7815 689.045
35.7859 721.453
35.7904 755.153
35.7948 790.072
35.7993 826.202
35.8037 863.447
35.8081 901.956
35.8126 941.534
35.8214 1024.12
35.8303 1110.99
35.8392 1201.54
35.8481 1295.32
35.8569 1391.71
35.8658 1490.07
35.8747 1589.32
35.8924 1787.03
35.9102 1976.58
35.9190 2065.47
35.9279 2148.90
35.9365 2223.77
35.9451 2291.35
35.9538 2350.89
35.9624 2401.42
35.9711 2442.55
35.9798 2473.30
35.9884 2493.22
35.9971 2502.01
36.0000 2502.44
36.0058 2499.54
36.0152 2484.21
36.0246 2456.01
36.0340 2415.37
36.0434 2363.09
36.0525 2302.25
36.0616 2232.35
36.0707 2154.37
36.0797 2069.46
36.0889 1977.58
36.0981 1881.08
36.1165 1679.45
36.1349 1474.27
36.1533 1273.95
36.1683 1118.38
36.1759 1044.49
36.1834 973.538
36.1909 905.634
36.1984 841.115
36.2060 779.994
36.2135 722.332
36.2227 656.512
36.2273 625.541
36.2319 595.911
36.2365 567.476
36.2411 540.282
36.2457 514.305
36.2503 489.572
36.2549 465.946
36.2595 443.450
36.2641 422.053
36.2686 401.762
36.2732 382.454
36.2778 364.175
36.2824 346.809
36.2870 330.395
36.2920 313.442
36.2971 297.518
36.3021 282.509
36.3071 268.427
36.3121 255.170
36.3171 242.744
36.3221 231.054
36.3271 220.104
36.3322 209.808
36.3372 200.167
36.3422 191.103
36.3472 182.615
36.3522 174.635
36.3572 167.160
36.3622 160.142
36.3673 153.551
36.3719 147.851
36.3765 142.467
36.3811 137.378
36.3856 132.576
36.3948 123.714
36.4040 115.772
36.4132 108.622
36.4224 102.179
36.4316 96.3508
36.4408 91.0618
36.4500 86.2423
36.4592 81.8465
36.4684 77.8158
36.4776 74.1168
36.4868 70.7047
36.4960 67.5554
36.5052 64.6373
36.5144 61.9267
36.5236 59.4002
36.5327 57.0450
36.5419 54.8401
36.5511 52.7763
36.5603 50.8368
36.5695 49.0151
36.5787 47.2991
36.5879 45.6805
36.6063 42.7036
36.6247 40.0340
36.6431 37.6290
36.6615 35.4547
36.6765 33.8247
36.6915 32.3164
36.7066 30.9158
36.7216 29.6147
36.7367 28.4021
36.7517 27.2718
36.7668 26.2158
36.7818 25.2279
36.7969 24.3019
36.8119 23.4341
36.8269 22.6187
36.8420 21.8530
36.8721 20.4543
36.9022 19.2136
36.9205 18.5239
36.9389 17.8817
36.9573 17.2834
36.9757 16.7262
36.9941 16.2072
37.0125 15.7243
37.0309 15.2752
37.0493 14.8586
37.0677 14.4724
37.0860 14.1157
37.1044 13.7875
37.1228 13.4872
37.1412 13.2141
37.1596 12.9681
37.1780 12.7495
37.1964 12.5588
37.2131 12.4104
37.2298 12.2870
37.2465 12.1902
37.2632 12.1222
37.2799 12.0861
37.2967 12.0857
37.3134 12.1265
37.3301 12.2156
37.3410 12.3038
37.3518 12.4197
37.3627 12.5672
37.3736 12.7508
37.3844 12.9764
37.3953 13.2502
37.4062 13.5806
37.4170 13.9760
37.4279 14.4478
37.4387 15.0074
37.4496 15.6697
37.4605 16.4491
37.4659 16.8893
37.4713 17.3648
37.4768 17.8789
37.4822 18.4342
37.4876 19.0345
37.4931 19.6802
37.4985 20.3754
37.5039 21.1227
37.5094 21.9268
37.5148 22.7875
37.5202 23.7093
37.5257 24.6950
37.5311 25.7495
37.5365 26.8718
37.5420 28.0665
37.5474 29.3361
37.5528 30.6855
37.5583 32.1120
37.5637 33.6200
37.5691 35.2110
37.5746 36.8897
37.5800 38.6508
37.5854 40.4978
37.5909 42.4309
37.5992 45.5742
37.6076 48.9166
37.6159 52.4508
37.6243 56.1617
37.6326 60.0436
37.6410 64.0738
37.6577 72.4810
37.6761 82.0412
37.6945 91.5570
37.7129 100.591
37.7221 104.778
37.7313 108.671
37.7396 111.907
37.7480 114.812
37.7557 117.180
37.7635 119.202
37.7713 120.860
37.7790 122.130
37.7895 123.213
37.8000 123.539
37.8072 123.321
37.8144 122.743
37.8217 121.812
37.8289 120.537
37.8341 119.401
37.8417 117.467
37.8493 115.205
37.8568 112.637
37.8644 109.788
37.8721 106.630
37.8798 103.248
37.8952 95.9372
37.9105 88.1260
37.9259 80.0834
37.9413 72.0527
37.9567 64.2612
37.9644 60.5099
37.9721 56.8800
37.9798 53.3865
37.9874 50.0419
37.9958 46.5699
38.0042 43.3001
38.0126 40.2340
38.0210 37.3741
38.0294 34.7202
38.0378 32.2699
38.0462 30.0185
38.0546 27.9596
38.0623 26.2328
38.0700 24.6570
38.0777 23.2226
38.0853 21.9220
38.0930 20.7477
38.1007 19.6918
38.1084 18.7469
38.1161 17.9056
38.1238 17.1601
38.1315 16.5058
38.1392 15.9355
38.1469 15.4439
38.1546 15.0260
38.1623 14.6775
38.1699 14.3947
38.1776 14.1747
38.1832 14.0527
38.1888 13.9621
38.1944 13.9024
38.2000 13.8731
38.2056 13.8743
38.2112 13.9060
38.2189 14.0003
38.2266 14.1541
38.2343 14.3696
38.2420 14.6494
38.2497 14.9969
38.2573 15.4160
38.2650 15.9114
38.2727 16.4881
38.2804 17.1527
38.2881 17.9097
38.2958 18.7665
38.3035 19.7300
38.3112 20.8074
38.3189 22.0059
38.3266 23.3329
38.3343 24.7956
38.3434 26.7112
38.3524 28.8345
38.3615 31.1766
38.3706 33.7448
38.3797 36.5440
38.3888 39.5763
38.3979 42.8404
38.4070 46.3311
38.4147 49.4542
38.4224 52.7246
38.4301 56.1314
38.4377 59.6611
38.4531 67.0227
38.4685 74.6497
38.4853 83.0446
38.5021 91.2126
38.5175 98.2272
38.5252 101.477
38.5328 104.513
38.5398 107.062
38.5468 109.388
38.5542 111.582
38.5616 113.481
38.5690 115.066
38.5764 116.321
38.5882 117.611
38.6000 117.989
38.6072 117.766
38.6144 117.200
38.6217 116.297
38.6289 115.064
38.6341 113.968
38.6461 110.876
38.6580 107.027
38.6691 102.884
38.6801 98.2670
38.6906 93.4946
38.7011 88.4585
38.7222 77.9119
38.7442 66.7427
38.7553 61.3082
38.7663 56.0580
38.7748 52.1579
38.7833 48.4176
38.7918 44.8524
38.8003 41.4775
38.8089 38.2926
38.8174 35.3063
38.8259 32.5201
38.8344 29.9356
38.8399 28.3636
38.8454 26.8747
38.8510 25.4644
38.8565 24.1306
38.8620 22.8690
38.8675 21.6815
38.8730 20.5634
38.8785 19.5119
38.8840 18.5226
38.8895 17.5962
38.8951 16.7279
38.9006 15.9148
38.9061 15.1542
38.9116 14.4432
38.9171 13.7789
38.9226 13.1587
38.9274 12.6564
38.9321 12.1833
38.9369 11.7378
38.9416 11.3184
38.9464 10.9235
38.9512 10.5518
38.9559 10.2019
38.9607 9.87239
38.9702 9.26980
38.9797 8.73474
38.9892 8.25885
38.9988 7.83470
39.0083 7.45572
39.0178 7.11611
39.0273 6.81081
39.0368 6.53542
39.0464 6.28612
39.0559 6.05960
39.0654 5.85301
39.0749 5.66391
39.0900 5.39575
39.1050 5.15932
39.1200 4.94903
39.1351 4.76059
39.1501 4.59061
39.1651 4.43636
39.1801 4.29563
39.1952 4.16663
39.2102 4.04779
39.2252 3.93805
39.2553 3.74163
39.2854 3.57073
39.3154 3.42052
39.3455 3.28731
39.3756 3.16837
39.4056 3.06143
39.4357 2.96472
39.4657 2.87679
39.4958 2.79650
39.5259 2.72286
39.5559 2.65504
39.6161 2.53423
39.6762 2.42975
39.7363 2.33842
39.7964 2.25794
39.8606 2.18205
39.9247 2.11480
39.9888 2.05488
40.0530 2.00129
40.1171 1.95318
40.1812 1.90986
40.3095 1.83523
40.4378 1.77374
40.5660 1.72318
40.6943 1.68188
40.8226 1.64856
40.9829 1.61666
41.1433 1.59433
41.3036 1.58059
41.4639 1.57480
41.6403 1.57711
41.8167 1.58826
41.9930 1.60822
42.1694 1.63723
42.3458 1.67573
42.5221 1.72444
42.6985 1.78434
42.8749 1.85675
43.0272 1.93068
43.1795 2.01663
43.3318 2.11636
43.4842 2.23205
43.5603 2.29671
43.6365 2.36643
43.7126 2.44163
43.7888 2.52277
43.8650 2.61037
43.9411 2.70517
44.0173 2.80802
44.0934 2.91985
44.1816 3.06180
44.2698 3.21873
44.3580 3.39271
44.4462 3.58615
44.5344 3.80201
44.6225 4.04378
44.7107 4.31572
44.7548 4.46458
44.7989 4.62301
44.8711 4.90518
44.9432 5.21942
45.0154 5.57078
45.0514 5.76224
45.0875 5.96528
45.1236 6.18096
45.1597 6.41029
45.1958 6.65448
45.2318 6.91479
45.2679 7.19288
45.3040 7.49030
45.3401 7.80910
45.3761 8.15122
45.4202 8.60480
45.4643 9.10176
45.5084 9.64799
45.5525 10.2503
45.5966 10.9168
45.6407 11.6567
45.6848 12.4817
45.7068 12.9303
45.7289 13.4053
45.7649 14.2462
45.8010 15.1749
45.8371 16.2050
45.8732 17.3515
45.8912 17.9743
45.9092 18.6337
45.9273 19.3326
45.9453 20.0739
45.9634 20.8622
45.9814 21.7010
45.9994 22.5949
46.0085 23.0642
46.0175 23.5486
46.0290 24.1927
46.0405 24.8647
46.0520 25.5677
46.0636 26.3023
46.0751 27.0720
46.0866 27.8775
46.0981 28.7228
46.1097 29.6090
46.1207 30.4994
46.1317 31.4325
46.1427 32.4122
46.1482 32.9206
46.1538 33.4419
46.1628 34.3244
46.1718 35.2450
46.1808 36.2060
46.1898 37.2099
46.1954 37.8467
46.2009 38.5000
46.2064 39.1718
46.2119 39.8628
46.2174 40.5739
46.2229 41.3057
46.2284 42.0592
46.2339 42.8355
46.2394 43.6368
46.2450 44.4614
46.2505 45.3118
46.2560 46.1893
46.2615 47.0950
46.2670 48.0304
46.2725 48.9968
46.2780 49.9958
46.2835 51.0310
46.2890 52.1004
46.2946 53.2076
46.3001 54.3547
46.3056 55.5439
46.3111 56.7774
46.3166 58.0578
46.3221 59.3878
46.3276 60.7727
46.3331 62.2106
46.3386 63.7075
46.3442 65.2669
46.3497 66.8957
46.3552 68.5922
46.3607 70.3639
46.3662 72.2158
46.3717 74.1567
46.3772 76.1854
46.3827 78.3115
46.3883 80.5419
46.3938 82.8837
46.3993 85.3450
46.4048 87.9342
46.4103 90.6605
46.4138 92.4734
46.4173 94.3486
46.4208 96.2892
46.4243 98.2922
46.4278 100.372
46.4313 102.527
46.4349 104.761
46.4384 107.069
46.4419 109.470
46.4454 111.961
46.4489 114.545
46.4524 117.220
46.4559 120.006
46.4594 122.891
46.4629 125.896
46.4664 129.011
46.4719 134.174
46.4774 139.655
46.4829 145.485
46.4885 151.691
46.4940 158.311
46.4995 165.349
46.5050 172.848
46.5105 180.838
46.5160 189.368
46.5215 198.443
46.5270 208.114
46.5326 218.419
46.5381 229.417
46.5436 241.111
46.5491 253.560
46.5546 266.810
46.5606 282.253
46.5666 298.734
46.5726 316.340
46.5787 335.130
46.5847 355.165
46.5907 376.506
46.5967 399.213
46.6027 423.345
46.6082 446.814
46.6137 471.529
46.6192 497.571
46.6247 524.978
46.6303 553.838
46.6358 584.076
46.6413 615.769
46.6468 648.940
46.6523 683.668
46.6578 719.837
46.6633 757.514
46.6688 796.696
46.6744 837.373
46.6799 879.525
46.6854 923.127
46.6909 968.143
46.7019 1062.32
46.7129 1161.41
46.7240 1264.86
46.7350 1371.88
46.7460 1481.60
46.7570 1592.73
46.7791 1814.36
46.7971 1988.54
46.8061 2070.92
46.8151 2149.01
46.8262 2237.40
46.8372 2316.67
46.8503 2397.23
46.8634 2460.95
46.8726 2494.57
46.8817 2518.75
46.8909 2533.19
46.9000 2537.70
46.9031 2536.98
46.9130 2527.00
46.9229 2505.49
46.9328 2472.76
46.9427 2429.31
46.9509 2385.54
46.9592 2335.26
46.9674 2278.98
46.9756 2217.24
46.9838 2150.87
46.9920 2080.36
47.0084 1929.12
47.0248 1768.58
47.0412 1603.73
47.0568 1446.50
47.0725 1293.13
47.0881 1146.41
47.0959 1076.29
47.1038 1008.64
47.1120 940.545
47.1201 875.609
47.1283 813.790
47.1365 755.314
47.1447 700.077
47.1529 648.215
47.1611 599.628
47.1693 554.260
47.1749 525.101
47.1805 497.372
47.1861 471.039
47.1917 446.105
47.1972 422.440
47.2028 400.047
47.2084 378.881
47.2140 358.928
47.2196 340.071
47.2252 322.297
47.2308 305.559
47.2364 289.834
47.2419 275.020
47.2475 261.121
47.2531 248.042
47.2587 235.783
47.2669 219.122
47.2751 203.970
47.2833 190.162
47.2915 177.611
47.2997 166.175
47.3079 155.776
47.3161 146.293
47.3243 137.659
47.3325 129.771
47.3406 122.575
47.3488 115.984
47.3570 109.953
47.3652 104.413
47.3734 99.3256
47.3816 94.6402
47.3898 90.3163
47.3980 86.3134
47.4062 82.6091
47.4144 79.1657
47.4226 75.9660
47.4308 72.9795
47.4390 70.1932
47.4472 67.5854
47.4554 65.1400
47.4636 62.8400
47.4717 60.6783
47.4881 56.7145
47.5045 53.1709
47.5209 49.9871
47.5358 47.3586
47.5507 44.9526
47.5656 42.7427
47.5805 40.7067
47.5954 38.8257
47.6103 37.0833
47.6252 35.4655
47.6401 33.9611
47.6550 32.5575
47.6699 31.2464
47.6848 30.0195
47.6997 28.8695
47.7146 27.7900
47.7295 26.7751
47.7444 25.8196
47.7593 24.9196
47.7757 23.9872
47.7921 23.1111
47.8085 22.2868
47.8248 21.5101
47.8576 20.0859
47.8904 18.8135
47.9232 17.6715
47.9559 16.6433
47.9887 15.7139
48.0215 14.8717
48.0468 14.2737
48.0722 13.7172
48.0975 13.1987
48.1228 12.7150
48.1481 12.2628
48.1735 11.8397
48.1988 11.4433
48.2241 11.0717
48.2748 10.3948
48.3254 9.79603
48.3761 9.26465
48.4267 8.79203
48.4595 8.51392
48.4923 8.25557
48.5251 8.01545
48.5578 7.79224
48.6234 7.39144
48.6889 7.04466
48.7545 6.74495
48.8201 6.48675
48.8856 6.26540
48.9512 6.07712
49.0108 5.93202
49.0703 5.80985
49.1299 5.70902
49.1895 5.62836
49.2491 5.56687
49.3087 5.52374
49.3683 5.49832
49.4279 5.49014
49.4994 5.50282
49.5709 5.54033
49.6424 5.60346
49.7140 5.69334
49.7855 5.81145
49.8570 5.95967
49.9285 6.14054
50.0000 6.35723
50.0724 6.61712
50.1448 6.92292
50.2171 7.28107
50.2533 7.48223
50.2895 7.69957
50.3257 7.93449
50.3619 8.18836
50.3981 8.46297
50.4342 8.76005
50.4704 9.08191
50.5066 9.43080
50.5428 9.80969
50.5790 10.2215
50.6209 10.7444
50.6628 11.3228
50.7047 11.9642
50.7466 12.6774
50.7885 13.4729
50.8304 14.3634
50.8723 15.3642
50.8932 15.9114
50.9142 16.4932
50.9504 17.5895
50.9865 18.8163
51.0046 19.4854
51.0227 20.1952
51.0408 20.9495
51.0589 21.7522
51.0770 22.6079
51.0951 23.5207
51.1132 24.4962
51.1313 25.5406
51.1494 26.6612
51.1675 27.8647
51.1765 28.5007
51.1856 29.1603
51.1946 29.8462
51.2037 30.5582
51.2146 31.4597
51.2256 32.4049
51.2365 33.3977
51.2475 34.4417
51.2529 34.9845
51.2584 35.5405
51.2639 36.1123
51.2694 36.6984
51.2748 37.3014
51.2803 37.9199
51.2858 38.5566
51.2913 39.2101
51.2965 39.8534
51.3017 40.5145
51.3070 41.1939
51.3122 41.8912
51.3175 42.6097
51.3227 43.3490
51.3279 44.1099
51.3332 44.8919
51.3375 45.5509
51.3417 46.2246
51.3460 46.9169
51.3503 47.6251
51.3546 48.3533
51.3589 49.0986
51.3632 49.8654
51.3674 50.6508
51.3717 51.4594
51.3760 52.2881
51.3803 53.1419
51.3846 54.0176
51.3889 54.9204
51.3932 55.8471
51.3974 56.8009
51.4017 57.7831
51.4070 59.0260
51.4122 60.3157
51.4174 61.6548
51.4227 63.0462
51.4272 64.2935
51.4317 65.5814
51.4362 66.9147
51.4408 68.2958
51.4453 69.7304
51.4498 71.2149
51.4543 72.7553
51.4589 74.3545
51.4641 76.2863
51.4693 78.3068
51.4746 80.4219
51.4798 82.6333
51.4850 84.9561
51.4903 87.3933
51.4955 89.9525
51.5008 92.6366
51.5060 95.4646
51.5112 98.4410
51.5165 101.576
51.5217 104.873
51.5269 108.357
51.5322 112.033
51.5374 115.915
51.5427 120.009
51.5479 124.344
51.5531 128.929
51.5584 133.780
51.5636 138.905
51.5688 144.342
51.5741 150.090
51.5793 156.190
51.5845 162.642
51.5898 169.492
51.5950 176.753
51.6003 184.449
51.6055 192.606
51.6107 201.251
51.6160 210.412
51.6212 220.118
51.6265 230.378
51.6317 241.262
51.6369 252.784
51.6422 264.975
51.6474 277.842
51.6526 291.468
51.6579 305.863
51.6631 321.061
51.6684 337.064
51.6736 353.968
51.6788 371.776
51.6841 390.521
51.6893 410.198
51.6945 430.912
51.6998 452.616
51.7050 475.419
51.7102 499.263
51.7155 524.264
51.7207 550.398
51.7260 577.687
51.7312 606.148
51.7364 635.793
51.7417 666.632
51.7469 698.673
51.7522 731.852
51.7574 766.293
51.7626 801.926
51.7679 838.739
51.7731 876.639
51.7836 955.963
51.7941 1039.48
51.8045 1126.99
51.8150 1217.86
51.8255 1311.58
51.8359 1407.47
51.8569 1602.67
51.8778 1796.02
51.8988 1979.12
51.9093 2064.00
51.9197 2142.99
51.9302 2215.08
51.9407 2279.18
51.9548 2351.22
51.9689 2405.20
51.9767 2426.73
51.9844 2442.14
51.9922 2451.29
52.0000 2454.11
52.0031 2453.46
52.0132 2444.32
52.0234 2424.60
52.0335 2394.54
52.0436 2354.65
52.0542 2302.73
52.0648 2241.39
52.0754 2171.51
52.0860 2094.10
52.0971 2006.49
52.1082 1913.24
52.1192 1815.52
52.1303 1714.81
52.1524 1509.10
52.1746 1305.44
52.1896 1171.80
52.2047 1044.68
52.2123 984.010
52.2198 925.569
52.2274 869.319
52.2349 815.497
52.2460 740.864
52.2570 671.603
52.2626 638.910
52.2681 607.602
52.2736 577.606
52.2792 548.905
52.2847 521.433
52.2902 495.265
52.2958 470.323
52.3013 446.577
52.3068 423.957
52.3124 402.509
52.3179 382.156
52.3234 362.861
52.3290 344.554
52.3345 327.262
52.3400 310.911
52.3456 295.463
52.3511 280.851
52.3566 267.091
52.3622 254.114
52.3677 241.884
52.3732 230.342
52.3788 219.494
52.3843 209.282
52.3898 199.671
52.3954 190.612
52.4009 182.106
52.4064 174.105
52.4120 166.578
52.4215 154.603
52.4311 143.825
52.4406 134.116
52.4502 125.371
52.4597 117.467
52.4693 110.327
52.4789 103.851
52.4884 97.9778
52.4980 92.6289
52.5075 87.7510
52.5171 83.2917
52.5266 79.2086
52.5362 75.4526
52.5457 71.9956
52.5553 68.7990
52.5649 65.8418
52.5759 62.6775
52.5870 59.7649
52.5981 57.0760
52.6091 54.5885
52.6202 52.2768
52.6313 50.1269
52.6423 48.1191
52.6534 46.2433
52.6645 44.4839
52.6755 42.8336
52.6866 41.2799
52.6976 39.8175
52.7198 37.1323
52.7419 34.7282
52.7570 33.2291
52.7721 31.8311
52.7872 30.5250
52.8023 29.3024
52.8174 28.1560
52.8324 27.0794
52.8475 26.0667
52.8626 25.1136
52.8777 24.2140
52.8928 23.3644
52.9230 21.8006
52.9532 20.3962
52.9833 19.1300
53.0055 18.2781
53.0276 17.4849
53.0497 16.7448
53.0719 16.0531
53.0940 15.4055
53.1161 14.7983
53.1382 14.2282
53.1604 13.6921
53.1825 13.1872
53.2046 12.7114
53.2268 12.2624
53.2489 11.8382
53.2932 11.0568
53.3374 10.3547
53.3857 9.66686
53.4340 9.04977
53.4823 8.49374
53.5306 7.99114
53.5789 7.53511
53.6271 7.12017
53.6754 6.74131
53.7237 6.39451
53.7680 6.10155
53.8122 5.83014
53.8565 5.57812
53.9008 5.34370
53.9450 5.12522
53.9893 4.92136
54.0335 4.73082
54.0778 4.55246
54.1221 4.38523
54.1663 4.22828
54.2106 4.08075
54.2549 3.94191
54.3434 3.68767
54.4319 3.46090
54.5204 3.25778
54.6089 3.07517
54.6975 2.91038
54.7860 2.76120
54.8745 2.62573
54.9630 2.50242
55.0516 2.38992
55.1401 2.28703
55.2286 2.19262
55.3171 2.10574
55.4057 2.02560
55.4942 1.95161
55.5827 1.88319
55.6712 1.81985
55.7597 1.76113
55.8483 1.70661
55.9368 1.65595
56.0253 1.60881
56.2024 1.52399
56.3794 1.45019
56.5564 1.38584
56.6772 1.34670
56.7979 1.31102
56.9186 1.27847
57.0393 1.24880
57.1600 1.22178
57.2807 1.19724
57.5222 1.15502
57.7636 1.12045
58.0050 1.09262
58.2464 1.07096
58.4879 1.05490
58.7454 1.04344
59.0029 1.03745
59.1800 1.03636
59.3570 1.03768
59.5341 1.04136
59.7111 1.04739
59.8881 1.05578
60.0652 1.06656
60.2422 1.07978
60.4193 1.09551
60.5963 1.11384
60.7734 1.13489
60.9504 1.15880
61.1275 1.18573
61.3045 1.21589
61.4816 1.24951
61.6586 1.28686
61.8356 1.32825
62.0449 1.38288
62.2541 1.44420
62.4634 1.51292
62.6726 1.59058
62.8818 1.67826
63.0911 1.77726
63.3003 1.88932
63.4049 1.95088
63.5095 2.01652
63.6866 2.13789
63.8636 2.27383
64.0407 2.42661
64.1292 2.51014
64.2177 2.59895
64.3063 2.69348
64.3948 2.79421
64.4833 2.90166
64.5718 3.01645
64.6603 3.13924
64.7489 3.27075
64.8374 3.41181
64.9259 3.56333
65.0305 3.75722
65.1351 3.96897
65.2398 4.20095
65.3444 4.45610
65.4490 4.73764
65.5536 5.04921
65.6582 5.39508
65.7629 5.78037
65.8313 6.05658
65.8997 6.35423
65.9681 6.67567
66.0365 7.02339
66.1049 7.40045
66.1733 7.81017
66.2075 8.02852
66.2417 8.25659
66.2759 8.49496
66.3101 8.74428
66.3352 8.93500
66.3604 9.13230
66.3855 9.33648
66.4107 9.54787
66.4358 9.76681
66.4610 9.99367
66.4861 10.2288
66.5113 10.4727
66.5334 10.6949
66.5555 10.9244
66.5777 11.1617
66.5998 11.4071
66.6219 11.6610
66.6441 11.9238
66.6662 12.1957
66.6883 12.4774
66.7004 12.6354
66.7125 12.7964
66.7235 12.9469
66.7346 13.1000
66.7457 13.2560
66.7567 13.4148
66.7678 13.5768
66.7789 13.7416
66.7899 13.9096
66.8010 14.0807
66.8121 14.2553
66.8231 14.4330
66.8342 14.6144
66.8453 14.7991
66.8563 14.9876
66.8674 15.1796
66.8785 15.3757
66.8895 15.5755
66.9006 15.7796
66.9117 15.9878
66.9227 16.2002
66.9338 16.4169
66.9449 16.6382
66.9559 16.8640
66.9670 17.0947
66.9780 17.3301
66.9891 17.5708
67.0002 17.8164
67.0112 18.0676
67.0223 18.3241
67.0334 18.5864
67.0444 18.8543
67.0555 19.1285
67.0666 19.4086
67.0766 19.6689
67.0867 19.9346
67.0967 20.2059
67.1068 20.4828
67.1169 20.7657
67.1269 21.0547
67.1370 21.3498
67.1470 21.6514
67.1571 21.9596
67.1672 22.2746
67.1772 22.5966
67.1873 22.9258
67.1973 23.2625
67.2074 23.6068
67.2175 23.9590
67.2275 24.3191
67.2386 24.7253
67.2496 25.1418
67.2607 25.5695
67.2718 26.0082
67.2828 26.4589
67.2939 26.9214
67.3050 27.3969
67.3160 27.8849
67.3271 28.3870
67.3382 28.9026
67.3492 29.4333
67.3603 29.9787
67.3714 30.5404
67.3824 31.1178
67.3935 31.7129
67.4046 32.3251
67.4156 32.9563
67.4267 33.6068
67.4378 34.2772
67.4488 34.9679
67.4599 35.6810
67.4710 36.4162
67.4820 37.1757
67.4931 37.9593
67.5042 38.7695
67.5152 39.6059
67.5263 40.4715
67.5373 41.3659
67.5484 42.2921
67.5595 43.2500
67.5705 44.2429
67.5816 45.2707
67.5927 46.3371
67.6037 47.4420
67.6148 48.5894
67.6259 49.7797
67.6369 51.0170
67.6480 52.3019
67.6591 53.6393
67.6701 55.0296
67.6812 56.4784
67.6923 57.9865
67.7033 59.5603
67.7144 61.2006
67.7255 62.9148
67.7365 64.7043
67.7476 66.5771
67.7586 68.5355
67.7697 70.5886
67.7808 72.7412
67.7919 75.0003
67.8029 77.3713
67.8140 79.8671
67.8250 82.4924
67.8361 85.2622
67.8472 88.1829
67.8582 91.2723
67.8693 94.5391
67.8804 98.0048
67.8914 101.681
67.9025 105.593
67.9136 109.757
67.9246 114.205
67.9357 118.956
67.9448 123.100
67.9538 127.486
67.9629 132.144
67.9719 137.090
67.9810 142.358
67.9900 147.968
67.9991 153.955
68.0081 160.356
68.0172 167.217
68.0262 174.566
68.0353 182.456
68.0443 190.941
68.0534 200.087
68.0624 209.937
68.0715 220.567
68.0805 232.053
68.0861 239.540
68.0916 247.383
68.0972 255.631
68.1027 264.275
68.1082 273.370
68.1138 282.905
68.1193 292.922
68.1248 303.447
68.1304 314.526
68.1359 326.146
68.1414 338.357
68.1469 351.187
68.1525 364.693
68.1580 378.855
68.1635 393.732
68.1691 409.356
68.1746 425.791
68.1801 443.011
68.1857 461.083
68.1912 480.040
68.1967 499.955
68.2023 520.794
68.2078 542.627
68.2133 565.491
68.2189 589.466
68.2244 614.501
68.2299 640.674
68.2355 668.020
68.2410 696.624
68.2465 726.417
68.2521 757.480
68.2576 789.841
68.2687 858.634
68.2797 932.867
68.2908 1012.82
68.3019 1098.46
68.3129 1189.96
68.3240 1287.14
68.3351 1390.05
68.3461 1498.32
68.3622 1665.04
68.3783 1841.28
68.3944 2025.50
68.4105 2215.29
68.4548 2743.60
68.4769 2994.78
68.4880 3112.88
68.4990 3224.41
68.5103 3330.12
68.5216 3426.43
68.5328 3512.28
68.5441 3586.64
68.5570 3656.46
68.5699 3708.86
68.5828 3742.97
68.5957 3758.21
68.6000 3759.04
68.6043 3757.74
68.6183 3738.87
68.6323 3697.97
68.6462 3635.81
68.6602 3553.69
68.6716 3473.19
68.6829 3381.50
68.6943 3279.75
68.7057 3169.16
68.7170 3052.07
68.7282 2928.83
68.7508 2669.22
68.7999 2083.49
68.8225 1825.18
68.8337 1701.59
68.8450 1582.55
68.8563 1468.55
68.8675 1359.97
68.8788 1257.09
68.8901 1160.17
68.9013 1069.12
68.9126 984.049
68.9239 904.882
68.9351 831.562
68.9464 763.781
68.9577 701.443
68.9689 644.186
68.9802 591.836
68.9884 556.602
68.9966 523.712
69.0048 492.968
69.0130 464.329
69.0212 437.608
69.0294 412.755
69.0376 389.599
69.0458 368.086
69.0540 348.058
69.0621 329.463
69.0703 312.159
69.0785 296.095
69.0867 281.144
69.0949 267.260
69.1031 254.346
69.1113 242.328
69.1226 227.132
69.1338 213.339
69.1451 200.803
69.1564 189.397
69.1676 178.983
69.1789 169.464
69.1902 160.743
69.2014 152.743
69.2127 145.375
69.2240 138.578
69.2353 132.294
69.2465 126.476
69.2578 121.068
69.2691 116.034
69.2803 111.339
69.2916 106.954
69.3029 102.844
69.3141 98.9872
69.3254 95.3624
69.3367 91.9524
69.3479 88.7338
69.3592 85.6941
69.3817 80.0986
69.4043 75.0649
69.4268 70.5194
69.4493 66.3955
69.4719 62.6397
69.4934 59.3564
69.5149 56.3348
69.5364 53.5468
69.5579 50.9678
69.5794 48.5769
69.6009 46.3554
69.6224 44.2873
69.6439 42.3583
69.6654 40.5560
69.6870 38.8691
69.7085 37.2878
69.7300 35.8033
69.7515 34.4076
69.7730 33.0937
69.7945 31.8552
69.8160 30.6864
69.8386 29.5306
69.8611 28.4407
69.8836 27.4107
69.9062 26.4372
69.9512 24.6418
69.9963 23.0263
70.0414 21.5673
70.0864 20.2451
70.1315 19.0428
70.1766 17.9466
70.2093 17.2087
70.2421 16.5162
70.2749 15.8654
70.3077 15.2533
70.3405 14.6765
70.3732 14.1324
70.4060 13.6186
70.4388 13.1329
70.5043 12.2373
70.5699 11.4319
70.6354 10.7046
70.7010 10.0458
70.7461 9.62821
70.7911 9.23663
70.8362 8.86899
70.8813 8.52339
70.9263 8.19808
70.9714 7.89152
71.0165 7.60230
71.0615 7.32917
71.1517 6.82639
71.2418 6.37510
71.3320 5.96850
71.4221 5.60092
71.5204 5.23869
71.6188 4.91189
71.7171 4.61604
71.8154 4.34740
71.9138 4.10283
72.0121 3.87962
72.1104 3.67532
72.2087 3.48773
72.2989 3.32884
72.3890 3.18125
72.4792 3.04397
72.5693 2.91613
72.6594 2.79689
72.7496 2.68551
72.8397 2.58135
72.9298 2.48380
73.0200 2.39233
73.1101 2.30645
73.2003 2.22573
73.2904 2.14978
73.4707 2.01080
73.6509 1.88705
73.8312 1.77645
74.0115 1.67734
74.1918 1.58824
74.3720 1.50798
74.5523 1.43552
74.7326 1.36998
74.9129 1.31063
75.0931 1.25691
75.2652 1.21042
75.4373 1.16798
75.6094 1.12914
75.7815 1.09370
75.9535 1.06144
76.1256 1.03210
76.2977 1.00548
76.4698 0.981382
76.6419 0.959658
76.8139 0.940162
76.9860 0.922775
77.1581 0.907395
77.3302 0.893935
77.5023 0.882323
77.6743 0.872504
77.8464 0.864432
78.0431 0.857312
78.2397 0.852412
78.4364 0.849732
78.6331 0.849293
78.9281 0.852943
79.2231 0.862011
79.5181 0.876917
79.8130 0.898269
79.9605 0.911615
80.1080 0.926906
80.2555 0.944264
80.4030 0.963804
80.5505 0.985762
80.6980 1.01051
80.8455 1.03834
80.9930 1.06953
81.1733 1.11278
81.3536 1.16245
81.5339 1.21963
81.7141 1.28563
81.8043 1.32244
81.8944 1.36211
81.9845 1.40492
82.0747 1.45118
82.1648 1.50126
82.2549 1.55554
82.3451 1.61449
82.4352 1.67861
82.5336 1.75519
82.6319 1.83965
82.7302 1.93318
82.8285 2.03713
82.9269 2.15313
83.0252 2.28304
83.1235 2.42922
83.1727 2.50929
83.2219 2.59453
83.3079 2.75766
83.3940 2.94109
83.4370 3.04151
83.4800 3.14841
83.5230 3.26237
83.5660 3.38405
83.6091 3.51415
83.6521 3.65350
83.6951 3.80301
83.7381 3.96373
83.7811 4.13683
83.8242 4.32368
83.8672 4.52581
83.9102 4.74502
83.9553 4.99522
84.0003 5.26915
84.0454 5.57002
84.0905 5.90157
84.1355 6.26827
84.1806 6.67543
84.2257 7.12941
84.2707 7.63782
84.2933 7.91547
84.3158 8.21034
84.3384 8.52420
84.3609 8.85851
84.3834 9.21547
84.4060 9.59693
84.4285 10.0057
84.4510 10.4441
84.4736 10.9157
84.4961 11.4237
84.5186 11.9727
84.5412 12.5671
84.5637 13.2128
84.5862 13.9161
84.6088 14.6849
84.6313 15.5286
84.6538 16.4590
84.6764 17.4892
84.6989 18.6372
84.7102 19.2618
84.7214 19.9237
84.7327 20.6277
84.7440 21.3774
84.7552 22.1773
84.7665 23.0320
84.7778 23.9490
84.7890 24.9336
84.7947 25.4548
84.8003 25.9953
84.8059 26.5570
84.8116 27.1412
84.8180 27.8353
84.8244 28.5612
84.8308 29.3221
84.8372 30.1204
84.8436 30.9601
84.8500 31.8413
84.8564 32.7683
84.8628 33.7443
84.8692 34.7744
84.8756 35.8591
84.8820 37.0039
84.8884 38.2130
84.8948 39.4912
84.9012 40.8431
84.9076 42.2741
84.9140 43.7898
84.9196 45.2002
84.9253 46.6826
84.9309 48.2439
84.9365 49.8888
84.9422 51.6255
84.9478 53.4532
84.9534 55.3803
84.9591 57.4129
84.9626 58.7667
84.9662 60.1675
84.9698 61.6169
84.9734 63.1125
84.9770 64.6644
84.9806 66.2657
84.9842 67.9273
84.9877 69.6418
84.9921 71.8104
84.9965 74.0655
85.0008 76.4214
85.0052 78.8709
85.0095 81.4293
85.0139 84.0889
85.0182 86.8596
85.0226 89.7456
85.0282 93.6661
85.0338 97.7898
85.0395 102.133
85.0451 106.707
85.0513 111.977
85.0574 117.537
85.0635 123.420
85.0697 129.620
85.0753 135.614
85.0810 141.895
85.0866 148.495
85.0922 155.402
85.0979 162.651
85.1035 170.227
85.1091 178.151
85.1148 186.436
85.1204 195.105
85.1260 204.137
85.1317 213.574
85.1373 223.389
85.1429 233.627
85.1486 244.257
85.1542 255.304
85.1598 266.774
85.1655 278.692
85.1711 291.021
85.1767 303.784
85.1824 316.982
85.1880 330.642
85.1936 344.714
85.2049 374.155
85.2162 405.328
85.2274 438.151
85.2387 472.543
85.2500 508.397
85.2612 545.576
85.2725 583.917
85.2838 623.228
85.2950 663.253
85.3176 744.576
85.3401 825.636
85.3626 903.883
85.3852 976.592
85.3975 1012.96
85.4097 1046.41
85.4210 1074.18
85.4323 1098.87
85.4446 1122.01
85.4569 1140.86
85.4661 1152.08
85.4754 1160.64
85.4846 1166.50
85.4938 1169.61
85.5000 1170.15
85.5062 1169.45
85.5162 1165.69
85.5262 1158.71
85.5362 1148.57
85.5462 1135.38
85.5607 1111.16
85.5751 1081.26
85.5893 1046.81
85.6035 1007.99
85.6145 975.349
85.6255 940.791
85.6474 867.104
85.6616 817.134
85.6758 766.172
85.7042 663.801
85.7184 613.501
85.7326 564.515
85.7468 517.224
85.7610 471.973
85.7746 430.919
85.7882 392.184
85.8017 355.835
85.8153 322.000
85.8220 306.013
85.8288 290.656
85.8356 275.924
85.8424 261.834
85.8492 248.336
85.8559 235.442
85.8627 223.142
85.8695 211.440
85.8766 199.759
85.8837 188.701
85.8908 178.230
85.8979 168.327
85.9050 158.972
85.9121 150.145
85.9192 141.824
85.9263 133.989
85.9334 126.618
85.9405 119.690
85.9476 113.184
85.9547 107.079
85.9618 101.353
85.9689 95.9875
85.9760 90.9621
85.9831 86.2576
85.9934 79.9480
86.0038 74.2239
86.0141 69.0336
86.0244 64.3330
86.0347 60.0679
86.0451 56.2011
86.0554 52.6939
86.0657 49.5138
86.0760 46.6221
86.0864 43.9925
86.0967 41.5981
86.1070 39.4167
86.1174 37.4221
86.1277 35.5968
86.1380 33.9234
86.1483 32.3873
86.1625 30.4687
86.1767 28.7501
86.1909 27.2031
86.2051 25.8045
86.2193 24.5348
86.2335 23.3775
86.2477 22.3185
86.2619 21.3459
86.2761 20.4495
86.2903 19.6207
86.3045 18.8522
86.3187 18.1375
86.3329 17.4713
86.3471 16.8488
86.3613 16.2659
86.3755 15.7191
86.3936 15.0699
86.4117 14.4688
86.4298 13.9102
86.4478 13.3906
86.4659 12.9056
86.4840 12.4528
86.5021 12.0287
86.5201 11.6314
86.5563 10.9077
86.5924 10.2667
86.6286 9.69642
86.6647 9.18707
86.6931 8.82403
86.7215 8.49034
86.7499 8.18297
86.7783 7.89940
86.8068 7.63734
86.8352 7.39503
86.8636 7.17065
86.8920 6.96269
86.9204 6.76972
86.9488 6.59068
87.0056 6.26997
87.0624 5.99312
87.1192 5.75419
87.1605 5.60138
87.2018 5.46451
87.2431 5.34216
87.2844 5.23314
87.3257 5.13642
87.3670 5.05106
87.4497 4.91134
87.5323 4.80873
87.6149 4.73931
87.6975 4.70019
87.7801 4.68933
87.8370 4.69754
87.8938 4.71818
87.9506 4.75109
88.0074 4.79623
88.0642 4.85369
88.1210 4.92362
88.1778 5.00633
88.2346 5.10224
88.2914 5.21190
88.3482 5.33593
88.4050 5.47517
88.4618 5.63050
88.5186 5.80309
88.5754 5.99416
88.6322 6.20525
88.6890 6.43811
88.7510 6.71945
88.8129 7.03233
88.8749 7.38046
88.9369 7.76814
88.9988 8.20059
89.0608 8.68380
89.1228 9.22495
89.1847 9.83254
89.2338 10.3676
89.2829 10.9569
89.3319 11.6077
89.3810 12.3285
89.4300 13.1293
89.4546 13.5633
89.4791 14.0221
89.5036 14.5075
89.5282 15.0216
89.5527 15.5666
89.5772 16.1449
89.5953 16.5944
89.6134 17.0647
89.6314 17.5575
89.6495 18.0737
89.6586 18.3414
89.6676 18.6155
89.6766 18.8965
89.6857 19.1841
89.6947 19.4792
89.7037 19.7815
89.7128 20.0918
89.7218 20.4098
89.7360 20.9270
89.7502 21.4654
89.7644 22.0266
89.7786 22.6121
89.7857 22.9143
89.7928 23.2231
89.7999 23.5388
89.8070 23.8614
89.8141 24.1913
89.8212 24.5286
89.8283 24.8736
89.8354 25.2265
89.8457 25.7541
89.8528 26.1281
89.8599 26.5105
89.8670 26.9019
89.8741 27.3029
89.8813 27.7142
89.8884 28.1350
89.8955 28.5663
89.9026 29.0084
89.9097 29.4618
89.9168 29.9267
89.9239 30.4038
89.9310 30.8933
89.9381 31.3958
89.9452 31.9118
89.9523 32.4417
89.9594 32.9862
89.9665 33.5458
89.9736 34.1211
89.9807 34.7127
89.9878 35.3214
89.9949 35.9479
90.0020 36.5928
90.0091 37.2571
90.0162 37.9416
90.0233 38.6472
90.0304 39.3748
90.0375 40.1256
90.0446 40.9005
90.0517 41.7007
90.0588 42.5276
90.0659 43.3824
90.0730 44.2665
90.0833 45.6084
90.0936 47.0207
90.1039 48.5091
90.1143 50.0784
90.1246 51.7383
90.1349 53.4952
90.1401 54.4136
90.1453 55.3577
90.1504 56.3305
90.1556 57.3333
90.1627 58.7666
90.1698 60.2612
90.1769 61.8229
90.1840 63.4562
90.1911 65.1659
90.1982 66.9569
90.2053 68.8349
90.2124 70.8056
90.2195 72.8755
90.2266 75.0514
90.2337 77.3407
90.2408 79.7512
90.2479 82.2915
90.2550 84.9706
90.2621 87.7984
90.2692 90.7853
90.2763 93.9426
90.2834 97.2821
90.2905 100.817
90.2976 104.560
90.3047 108.527
90.3118 112.732
90.3189 117.192
90.3260 121.924
90.3331 126.948
90.3402 132.281
90.3473 137.945
90.3544 143.961
90.3615 150.352
90.3686 157.141
90.3757 164.352
90.3828 172.013
90.3899 180.160
90.3970 188.799
90.4041 197.970
90.4112 207.702
90.4183 218.026
90.4254 228.972
90.4325 240.572
90.4396 252.857
90.4467 265.861
90.4538 279.615
90.4609 294.153
90.4680 309.506
90.4751 325.707
90.4822 342.787
90.4893 360.776
90.4964 379.703
90.5054 405.205
90.5145 432.328
90.5235 461.120
90.5325 491.588
90.5416 523.833
90.5506 557.850
90.5597 593.653
90.5687 631.204
90.5758 661.981
90.5829 693.848
90.5971 760.791
90.6113 831.849
90.6255 906.736
90.6397 985.062
90.6539 1066.33
90.6681 1149.93
90.6823 1235.14
90.7107 1407.10
90.7391 1574.49
90.7520 1646.79
90.7649 1715.55
90.7778 1779.92
90.7907 1839.04
90.8049 1897.21
90.8191 1947.11
90.8360 1994.53
90.8529 2027.90
90.8647 2042.35
90.8765 2049.28
90.8882 2048.59
90.9000 2040.24
90.9039 2035.75
90.9167 2015.40
90.9294 1986.42
90.9422 1949.12
90.9550 1904.03
90.9662 1858.10
90.9775 1807.01
90.9888 1751.14
91.0000 65.3776
100.000 61.7131
125.000 53.7747
150.000 47.9908
170.000 44.3540
200.000 40.0063
250.000 34.6679
300.000 30.7975
350.000 27.8376
400.000 25.4865
500.000 21.9606
600.000 19.4191
720.000 17.1519
850.000 15.3040
1000.00 13.6761
1250.00 11.7044
1500.00 10.2964
1700.00 9.42502
2000.00 8.39906
2500.00 7.16581
3000.00 6.29254
3500.00 5.63822
4000.00 5.12786
5000.00 4.37999
6000.00 3.85584
7000.00 3.46661
8000.00 3.16540
9000.00 2.92496
10000.0 2.72833
11000.0 2.56435
12000.0 2.42541
13000.0 2.30609
14000.0 2.20243
15000.0 2.11149
16000.0 2.03101
17000.0 1.95925
18000.0 1.89484
19000.0 1.83667
20000.0 1.78384
20000.0 1.78384
20000.0 1.78384
21000.0 1.73565
22000.0 1.69147
23000.0 1.65082
24000.0 1.61327
25000.0 1.57846
26000.0 1.54611
27000.0 1.51593
28000.0 1.48771
29000.0 1.46127
30000.0 1.43642
31000.0 1.41302
32000.0 1.39094
33000.0 1.37007
34000.0 1.35030
35000.0 1.33155
36000.0 1.31374
37000.0 1.29679
38000.0 1.28064
40000.0 1.25239
43000.0 1.21002
48000.0 1.15267
50000.0 1.13362
53000.0 1.10506
58000.0 1.06488
60000.0 1.05114
63000.0 1.03052
68000.0 1.00082
73000.0 0.974924
78000.0 0.952199
80000.0 0.944176
83000.0 0.932142
88000.0 0.914358
90000.0 0.908027
93000.0 0.898531
98000.0 0.884405
100000 0.879349
103000 0.871765
108000 0.860434
113000 0.850261
118000 0.841119
120000 0.837830
123000 0.832897
128000 0.825499
133000 0.818845
138000 0.812859
138722 0.812047
138722 0.811256
138722 0.811255
150000 0.779913
200000 0.665078
297000 0.595358
300000 0.593202
400000 0.561901
406795 0.561183
406795 0.561183
500000 0.551331
600000 0.556880
680262 0.558493
680262 0.558493
700000 0.558889
775565 0.562470
775565 0.562470
800000 0.563628
834071 0.554317
896552 0.537241
896553 0.537241
900000 0.536299
1.00000E+06 0.515394
1.02894E+06 0.514987
1.02894E+06 0.514987
1.09555E+06 0.514050
1.09555E+06 0.514050
1.10000E+06 0.513987
1.17623E+06 0.519691
1.17623E+06 0.519691
1.20000E+06 0.521470
1.22355E+06 0.523665
1.22356E+06 0.523665
1.30000E+06 0.530790
1.40000E+06 0.486794
1.50000E+06 0.458531
1.60000E+06 0.429038
1.70000E+06 0.399544
1.80000E+06 0.370700
1.90000E+06 0.320375
2.00000E+06 0.296578
2.50000E+06 0.203975
3.00000E+06 0.143261
3.50000E+06 0.0990779
4.00000E+06 0.0678881
5.00000E+06 0.0321322
6.00000E+06 0.0148577
6.60646E+06 0.0102998
6.87519E+06 0.00828010
7.00000E+06 0.00734207
8.00000E+06 0.00384641
9.00000E+06 0.00267361
9.50207E+06 0.00242131
9.50207E+06 0.00242131
1.00000E+07 0.00217109
1.10000E+07 0.00189534
1.20000E+07 0.00166701
1.30000E+07 0.00145153
1.40000E+07 0.00127224
1.45000E+07 0.00118478
1.50000E+07 0.00106902
1.58418E+07 0.000878234
1.60000E+07 0.000842380
1.63813E+07 0.000769459
1.63813E+07 0.000769457
1.70000E+07 0.000651132
1.80000E+07 0.000478917
1.90000E+07 0.000355744
2.00000E+07 0.000267095
