Er-166(n,tot) ENDFB-8.0
Energy(eV) XS(b)
1.00000E-05 693.779
1.03125E-05 683.212
1.06250E-05 673.116
1.09375E-05 663.456
1.12500E-05 654.201
1.15625E-05 645.324
1.18750E-05 636.801
1.21875E-05 628.608
1.25000E-05 620.724
1.28125E-05 613.131
1.31250E-05 605.810
1.34375E-05 598.747
1.37500E-05 591.927
1.43750E-05 578.960
1.50000E-05 566.813
1.56250E-05 555.403
1.62500E-05 544.658
1.68750E-05 534.517
1.75000E-05 524.925
1.81250E-05 515.834
1.87500E-05 507.202
1.93750E-05 498.992
2.00000E-05 491.171
2.09375E-05 480.102
2.18750E-05 469.755
2.28125E-05 460.053
2.37500E-05 450.932
2.46875E-05 442.337
2.56250E-05 434.218
2.65625E-05 426.535
2.75000E-05 419.248
2.84375E-05 412.325
2.93750E-05 405.738
3.03125E-05 399.459
3.12500E-05 393.465
3.21875E-05 387.736
3.31250E-05 382.252
3.40625E-05 376.996
3.50000E-05 371.954
3.59375E-05 367.111
3.68750E-05 362.455
3.78125E-05 357.973
3.87500E-05 353.655
3.96875E-05 349.491
4.06250E-05 345.473
4.25000E-05 337.840
4.43750E-05 330.698
4.62500E-05 323.996
4.81250E-05 317.691
5.00000E-05 311.745
5.15625E-05 307.041
5.31250E-05 302.546
5.46875E-05 298.247
5.62500E-05 294.128
5.78125E-05 290.178
5.93750E-05 286.386
6.09375E-05 282.741
6.25000E-05 279.234
6.40625E-05 275.856
6.56250E-05 272.601
6.71875E-05 269.460
6.87500E-05 266.428
7.18750E-05 260.663
7.50000E-05 255.265
7.81250E-05 250.195
8.12500E-05 245.422
8.43750E-05 240.918
8.75000E-05 236.658
9.06250E-05 232.622
9.37500E-05 228.791
9.68750E-05 225.147
0.000100000 221.677
0.000103125 218.366
0.000106250 215.204
0.000109375 212.179
0.000112500 209.281
0.000115625 206.503
0.000118750 203.835
0.000121875 201.272
0.000125000 198.806
0.000128125 196.431
0.000131250 194.142
0.000134375 191.934
0.000137500 189.803
0.000143750 185.751
0.000150000 181.957
0.000156250 178.395
0.000162500 175.042
0.000168750 171.878
0.000175000 168.887
0.000181250 166.053
0.000187500 163.362
0.000193750 160.805
0.000200000 158.369
0.000209375 154.923
0.000218750 151.703
0.000228125 148.686
0.000237500 145.850
0.000246875 143.179
0.000256250 140.657
0.000265625 138.271
0.000275000 136.009
0.000284375 133.861
0.000293750 131.818
0.000303125 129.871
0.000312500 128.013
0.000321875 126.238
0.000331250 124.539
0.000340625 122.911
0.000350000 121.350
0.000359375 119.851
0.000368750 118.411
0.000378125 117.024
0.000387500 115.689
0.000396875 114.401
0.000406250 113.159
0.000425000 110.801
0.000443750 108.594
0.000462500 106.525
0.000481250 104.579
0.000500000 102.744
0.000515625 101.293
0.000531250 99.9071
0.000546875 98.5814
0.000562500 97.3119
0.000578125 96.0947
0.000593750 94.9262
0.000609375 93.8033
0.000625000 92.7232
0.000640625 91.6832
0.000656250 90.6809
0.000671875 89.7141
0.000687500 88.7807
0.000718750 87.0067
0.000750000 85.3457
0.000781250 83.7862
0.000812500 82.3183
0.000843750 80.9333
0.000875000 79.6238
0.000906250 78.3831
0.000937500 77.2054
0.000968750 76.0856
0.00100000 75.0191
0.00103125 74.0018
0.00106250 73.0300
0.00109375 72.1004
0.00112500 71.2102
0.00115625 70.3565
0.00118750 69.5369
0.00121875 68.7493
0.00125000 67.9916
0.00128125 67.2619
0.00131250 66.5587
0.00134375 65.8803
0.00137500 65.2252
0.00143750 63.9803
0.00150000 62.8144
0.00156250 61.7196
0.00162500 60.6889
0.00168750 59.7163
0.00175000 58.7966
0.00181250 57.9252
0.00187500 57.0979
0.00193750 56.3112
0.00200000 55.5618
0.00209375 54.5016
0.00218750 53.5107
0.00228125 52.5817
0.00237500 51.7086
0.00246875 50.8860
0.00256250 50.1091
0.00265625 49.3738
0.00275000 48.6767
0.00284375 48.0145
0.00293750 47.3844
0.00303125 46.7838
0.00312500 46.2106
0.00321875 45.6628
0.00331250 45.1384
0.00340625 44.6360
0.00350000 44.1539
0.00359375 43.6909
0.00368750 43.2458
0.00378125 42.8173
0.00387500 42.4046
0.00396875 42.0066
0.00406250 41.6226
0.00425000 40.8931
0.00443750 40.2104
0.00462500 39.5699
0.00481250 38.9673
0.00500000 38.3990
0.00515625 37.9494
0.00531250 37.5198
0.00546875 37.1088
0.00562500 36.7152
0.00578125 36.3376
0.00593750 35.9751
0.00609375 35.6267
0.00625000 35.2915
0.00640625 34.9686
0.00656250 34.6574
0.00671875 34.3571
0.00687500 34.0671
0.00718750 33.5159
0.00750000 32.9996
0.00781250 32.5146
0.00812500 32.0579
0.00843750 31.6269
0.00875000 31.2192
0.00906250 30.8329
0.00937500 30.4660
0.00968750 30.1171
0.0100000 29.7847
0.0103125 29.4676
0.0106250 29.1646
0.0109375 28.8747
0.0112500 28.5971
0.0115625 28.3307
0.0118750 28.0750
0.0121875 27.8293
0.0125000 27.5928
0.0128125 27.3650
0.0131250 27.1455
0.0134375 26.9336
0.0137500 26.7291
0.0143750 26.3402
0.0150000 25.9758
0.0156250 25.6336
0.0162500 25.3113
0.0168750 25.0071
0.0175000 24.7193
0.0181250 24.4465
0.0187500 24.1875
0.0193750 23.9412
0.0200000 23.7065
0.0206625 23.4695
0.0213250 23.2436
0.0219875 23.0280
0.0226500 22.8219
0.0233125 22.6247
0.0239750 22.4358
0.0246375 22.2545
0.0253000 22.0804
0.0264578 21.7920
0.0276156 21.5219
0.0287734 21.2684
0.0299313 21.0297
0.0310891 20.8046
0.0322469 20.5917
0.0334047 20.3899
0.0345625 20.1984
0.0355274 20.0459
0.0364922 19.8996
0.0374570 19.7589
0.0384219 19.6235
0.0393867 19.4931
0.0403516 19.3674
0.0413164 19.2461
0.0422813 19.1290
0.0442109 18.9064
0.0461406 18.6979
0.0480703 18.5020
0.0500000 18.3177
0.0515625 18.1760
0.0531250 18.0406
0.0546875 17.9111
0.0562500 17.7870
0.0578125 17.6679
0.0593750 17.5536
0.0609375 17.4437
0.0625000 17.3379
0.0640625 17.2361
0.0656250 17.1379
0.0671875 17.0432
0.0687500 16.9517
0.0718750 16.7778
0.0750000 16.6147
0.0781250 16.4614
0.0812500 16.3170
0.0843750 16.1807
0.0875000 16.0516
0.0906250 15.9293
0.0937500 15.8132
0.0968750 15.7027
0.100000 15.5974
0.103125 15.4968
0.106250 15.4008
0.109375 15.3088
0.112500 15.2207
0.115625 15.1362
0.118750 15.0550
0.121875 14.9769
0.125000 14.9017
0.128125 14.8294
0.131250 14.7596
0.134375 14.6923
0.137500 14.6273
0.143750 14.5036
0.150000 14.3875
0.156250 14.2784
0.162500 14.1755
0.168750 14.0784
0.175000 13.9864
0.181250 13.8992
0.187500 13.8164
0.193750 13.7376
0.200000 13.6625
0.209375 13.5561
0.218750 13.4564
0.228125 13.3628
0.237500 13.2747
0.246875 13.1916
0.256250 13.1130
0.265625 13.0385
0.275000 12.9678
0.284375 12.9006
0.293750 12.8365
0.303125 12.7753
0.312500 12.7168
0.321875 12.6609
0.331250 12.6073
0.340625 12.5558
0.350000 12.5064
0.359375 12.4588
0.368750 12.4130
0.378125 12.3689
0.387500 12.3264
0.396875 12.2853
0.406250 12.2457
0.425000 12.1702
0.443750 12.0992
0.462500 12.0325
0.500000 11.9101
0.531250 11.8177
0.562500 11.7326
0.593750 11.6539
0.625000 11.5809
0.687500 11.4492
0.750000 11.3332
0.812500 11.2300
0.875000 11.1373
0.937500 11.0533
1.00000 10.9763
1.06250 10.9056
1.12500 10.8403
1.18750 10.7796
1.25000 10.7231
1.37500 10.6205
1.50000 10.5294
1.62500 10.4477
1.75000 10.3740
1.87500 10.3068
2.00000 10.2451
2.18750 10.1616
2.37500 10.0872
2.56250 10.0207
2.75000 9.96117
2.93750 9.90779
3.12500 9.86004
3.31250 9.81775
3.50000 9.78082
3.68750 9.74930
3.87500 9.72343
4.06250 9.70362
4.25000 9.69053
4.43750 9.68487
4.53125 9.68518
4.62500 9.68808
4.71875 9.69363
4.81250 9.70211
4.90625 9.71385
5.00000 9.72922
5.11778 9.75441
5.23556 9.78717
5.35334 9.82887
5.47112 9.88124
5.53001 9.91208
5.58890 9.94646
5.64779 9.98473
5.70668 10.0273
5.76557 10.0747
5.82446 10.1275
5.88335 10.1859
5.94224 10.2508
6.00394 10.3273
6.06563 10.4133
6.12733 10.5102
6.18902 10.6194
6.25072 10.7429
6.31241 10.8830
6.37411 11.0425
6.43580 11.2246
6.48908 11.4033
6.54236 11.6052
6.59565 11.8341
6.62229 11.9602
6.64893 12.0949
6.67557 12.2390
6.70221 12.3933
6.72885 12.5586
6.75549 12.7360
6.78213 12.9266
6.80877 13.1318
6.83541 13.3533
6.86205 13.5928
6.89290 13.8954
6.92375 14.2280
6.95460 14.5947
6.98544 15.0001
7.01629 15.4496
7.04714 15.9499
7.07799 16.5086
7.10883 17.1351
7.13828 17.8065
7.15300 18.1728
7.16772 18.5616
7.18245 18.9749
7.19717 19.4147
7.21189 19.8833
7.22661 20.3831
7.24134 20.9171
7.25606 21.4883
7.27078 22.1002
7.28550 22.7566
7.30023 23.4620
7.31495 24.2213
7.32967 25.0404
7.34439 25.9256
7.35982 26.9321
7.37524 28.0291
7.39067 29.2277
7.40609 30.5409
7.42151 31.9836
7.43694 33.5733
7.45236 35.3308
7.46778 37.2803
7.48321 39.4510
7.49092 40.6300
7.49863 41.8778
7.50634 43.2000
7.51405 44.6027
7.52177 46.0924
7.52948 47.6765
7.53719 49.3634
7.54490 51.1623
7.55261 53.0832
7.56032 55.1373
7.56804 57.3378
7.57575 59.6991
7.58346 62.2372
7.59117 64.9703
7.60099 68.7648
7.61080 72.9599
7.62062 77.6152
7.63043 82.8021
7.63534 85.6214
7.64025 88.6066
7.64515 91.7725
7.65006 95.1329
7.65497 98.7060
7.65988 102.509
7.66478 106.563
7.66969 110.891
7.67740 118.307
7.68512 126.579
7.68897 131.077
7.69283 135.841
7.69668 140.894
7.70054 146.257
7.70440 151.957
7.70825 158.020
7.71211 164.477
7.71596 171.361
7.71982 178.708
7.72368 186.555
7.72753 194.945
7.73139 203.920
7.73507 213.084
7.73875 222.874
7.74243 233.337
7.74611 244.524
7.74979 256.494
7.75347 269.302
7.75715 283.008
7.76083 297.670
7.76451 313.361
7.76819 330.143
7.77188 348.082
7.77556 367.241
7.77924 387.697
7.78292 409.503
7.78660 432.734
7.79028 457.434
7.79413 484.956
7.79799 514.209
7.80185 545.234
7.80570 578.061
7.80956 612.703
7.81341 649.157
7.81727 687.400
7.82112 727.378
7.82410 759.435
7.82708 792.441
7.83006 826.365
7.83304 861.125
7.83602 896.671
7.83900 932.897
7.84198 969.736
7.84496 1007.06
7.84882 1055.92
7.85267 1105.15
7.85653 1154.46
7.86038 1203.50
7.86432 1253.01
7.86826 1301.53
7.87220 1348.65
7.87614 1393.97
7.88030 1439.46
7.88446 1482.02
7.88862 1521.20
7.89278 1556.58
7.89958 1605.23
7.90299 1624.85
7.90639 1641.11
7.90979 1653.89
7.91319 1663.09
7.91660 1668.62
7.92000 1670.46
7.92605 1664.56
7.93210 1647.11
7.93815 1618.58
7.94420 1579.73
7.94871 1544.60
7.95323 1504.76
7.95774 1460.73
7.96225 1413.08
7.96677 1362.40
7.97128 1309.30
7.97579 1254.36
7.98030 1198.19
7.98576 1129.40
7.99122 1060.53
7.99667 992.402
8.00213 925.745
8.00758 861.174
8.01304 799.191
8.01850 740.182
8.02395 684.429
8.02941 632.112
8.03486 583.322
8.04032 538.073
8.04578 496.314
8.05123 457.940
8.05669 422.806
8.06214 390.739
8.06760 361.543
8.07306 335.013
8.07851 310.939
8.08397 289.113
8.08942 269.332
8.09488 251.405
8.10034 235.150
8.10579 220.399
8.11125 207.000
8.11571 196.940
8.12018 187.619
8.12464 178.973
8.12910 170.942
8.13357 163.474
8.13803 156.518
8.14250 150.032
8.14696 143.974
8.15142 138.309
8.15589 133.004
8.16035 128.028
8.16482 123.356
8.16928 118.963
8.17374 114.827
8.17821 110.928
8.18267 107.248
8.18813 103.024
8.19358 99.0759
8.19904 95.3794
8.20450 91.9133
8.20995 88.6585
8.21541 85.5977
8.22086 82.7154
8.22632 79.9978
8.23178 77.4323
8.23723 75.0074
8.24814 70.5395
8.25906 66.5223
8.26997 62.8963
8.28187 59.3277
8.29377 56.1107
8.30568 53.2000
8.31758 50.5572
8.32949 48.1499
8.34139 45.9505
8.35329 43.9354
8.36520 42.0843
8.37611 40.5162
8.38702 39.0590
8.39793 37.7025
8.40885 36.4374
8.41976 35.2555
8.43067 34.1496
8.44158 33.1133
8.45249 32.1408
8.46341 31.2268
8.47432 30.3668
8.48523 29.5566
8.49614 28.7923
8.50705 28.0704
8.51797 27.3880
8.53979 26.1301
8.56161 24.9986
8.58344 23.9769
8.60526 23.0512
8.62708 22.2096
8.64891 21.4421
8.67073 20.7401
8.69256 20.0963
8.71438 19.5045
8.73124 19.0792
8.74811 18.6795
8.76497 18.3032
8.78184 17.9485
8.79870 17.6138
8.81556 17.2975
8.83243 16.9982
8.84929 16.7146
8.88302 16.1904
8.91675 15.7172
8.95047 15.2886
8.98420 14.8990
9.00602 14.6656
9.02785 14.4454
9.04967 14.2375
9.07150 14.0409
9.09332 13.8548
9.11514 13.6786
9.15879 13.3526
9.20244 13.0581
9.24609 12.7911
9.28974 12.5482
9.33338 12.3265
9.36314 12.1861
9.39290 12.0538
9.42266 11.9288
9.45242 11.8107
9.48218 11.6989
9.51194 11.5931
9.57146 11.3975
9.63098 11.2206
9.69050 11.0597
9.75002 10.9130
9.80954 10.7790
9.85715 10.6798
9.90477 10.5871
9.95239 10.5002
10.0000 10.4188
10.0537 10.3327
10.1074 10.2522
10.1611 10.1768
10.2149 10.1060
10.2686 10.0394
10.3223 9.97668
10.3760 9.91752
10.4297 9.86161
10.4834 9.80868
10.5371 9.75852
10.6445 9.66563
10.7520 9.58147
10.8594 9.50482
10.9326 9.45634
11.0059 9.41062
11.0791 9.36741
11.1524 9.32649
11.2988 9.25079
11.4453 9.18252
11.5918 9.12002
11.7383 9.06263
11.8848 9.00973
12.0313 8.96073
12.1484 8.92400
12.2656 8.88923
12.3828 8.85622
12.5000 8.82482
12.6563 8.78520
12.8125 8.74788
12.9688 8.71259
13.1250 8.67911
13.2813 8.64727
13.4375 8.61699
13.7500 8.56015
14.0625 8.50755
14.3750 8.45859
14.6875 8.41268
15.0000 8.36936
15.3125 8.32826
15.6250 8.28908
15.9375 8.25157
16.2500 8.21552
16.5625 8.18075
16.8750 8.14712
17.1875 8.11449
17.5000 8.08277
17.9688 8.03669
18.4375 7.99210
18.9063 7.94888
19.3750 7.90676
19.6875 7.87925
20.0000 7.85214
20.4508 7.81370
20.9015 7.77593
21.3522 7.73881
21.8030 7.70231
22.2537 7.66642
22.4791 7.64874
22.7045 7.63123
22.9298 7.61392
23.1552 7.59684
23.3806 7.58001
23.6059 7.56346
23.8518 7.54580
24.0977 7.52857
24.3435 7.51198
24.5894 7.49611
24.8352 7.48114
25.0811 7.46729
25.2040 7.46088
25.3270 7.45487
25.4499 7.44931
25.5728 7.44426
25.7470 7.43812
25.9211 7.43337
26.0953 7.43032
26.2694 7.42930
26.4436 7.43076
26.5307 7.43255
26.6177 7.43515
26.7048 7.43873
26.7919 7.44337
26.8790 7.44919
26.9660 7.45631
27.0787 7.46771
27.1914 7.48196
27.3041 7.49952
27.4168 7.52096
27.5295 7.54699
27.6421 7.57842
27.6985 7.59648
27.7548 7.61629
27.8112 7.63803
27.8675 7.66187
27.9546 7.70335
28.0417 7.75124
28.1287 7.80661
28.2158 7.87067
28.3029 7.94491
28.3464 7.98640
28.3900 8.03117
28.4335 8.07957
28.4770 8.13195
28.5206 8.18868
28.5641 8.25017
28.6205 8.33761
28.6768 8.43496
28.7331 8.54360
28.7895 8.66514
28.8458 8.80150
28.9022 8.95489
28.9585 9.12799
29.0149 9.32403
29.0686 9.53616
29.0955 9.65262
29.1224 9.77677
29.1493 9.90928
29.1762 10.0508
29.2031 10.2023
29.2300 10.3644
29.2569 10.5383
29.2838 10.7249
29.3107 10.9255
29.3376 11.1415
29.3644 11.3743
29.3913 11.6257
29.4182 11.8976
29.4451 12.1924
29.4733 12.5286
29.5015 12.8958
29.5296 13.2980
29.5578 13.7396
29.5860 14.2259
29.6141 14.7627
29.6423 15.3571
29.6705 16.0175
29.6987 16.7541
29.7268 17.5781
29.7409 18.0275
29.7550 18.5041
29.7691 19.0107
29.7832 19.5493
29.7973 20.1232
29.8113 20.7349
29.8254 21.3885
29.8395 22.0870
29.8536 22.8357
29.8677 23.6383
29.8818 24.5015
29.8959 25.4301
29.9151 26.8166
29.9343 28.3600
29.9535 30.0857
29.9631 31.0267
29.9727 32.0243
29.9823 33.0855
29.9919 34.2136
30.0015 35.4173
30.0111 36.7008
30.0207 38.0749
30.0303 39.5455
30.0399 41.1241
30.0495 42.8221
30.0636 45.5589
30.0707 47.0487
30.0777 48.6294
30.0847 50.3116
30.0918 52.0996
30.0988 54.0056
30.1059 56.0411
30.1129 58.2218
30.1200 60.5558
30.1270 63.0620
30.1340 65.7583
30.1411 68.6647
30.1481 71.8038
30.1552 75.2009
30.1622 78.8842
30.1683 82.3257
30.1744 86.0214
30.1805 90.0083
30.1865 94.3006
30.1926 98.9420
30.1987 103.950
30.2048 109.367
30.2078 112.240
30.2109 115.230
30.2139 118.353
30.2170 121.593
30.2200 124.966
30.2230 128.479
30.2261 132.136
30.2291 135.944
30.2322 139.910
30.2352 144.040
30.2382 148.356
30.2413 152.836
30.2443 157.502
30.2474 162.360
30.2504 167.418
30.2534 172.685
30.2565 178.168
30.2595 183.874
30.2619 188.562
30.2643 193.380
30.2667 198.351
30.2691 203.479
30.2715 208.768
30.2739 214.223
30.2763 219.847
30.2787 225.645
30.2811 231.646
30.2835 237.805
30.2883 250.687
30.2931 264.350
30.2979 278.825
30.3005 286.889
30.3031 295.198
30.3056 303.756
30.3082 312.569
30.3117 325.147
30.3152 338.189
30.3188 351.742
30.3223 365.814
30.3258 380.413
30.3293 395.549
30.3328 411.226
30.3364 427.451
30.3399 444.275
30.3434 461.607
30.3469 479.495
30.3504 497.939
30.3540 516.936
30.3575 536.484
30.3610 556.576
30.3645 577.207
30.3681 598.426
30.3716 620.104
30.3786 664.956
30.3857 711.687
30.3927 760.128
30.3997 810.144
30.4068 861.348
30.4138 913.527
30.4209 966.364
30.4279 1019.58
30.4350 1072.65
30.4490 1176.91
30.4631 1275.80
30.4702 1322.04
30.4772 1365.56
30.4835 1402.00
30.4899 1435.54
30.4962 1465.99
30.5025 1492.98
30.5111 1523.84
30.5197 1547.43
30.5283 1563.43
30.5369 1571.52
30.5400 1572.48
30.5463 1571.21
30.5525 1565.70
30.5619 1549.58
30.5713 1524.40
30.5807 1490.69
30.5901 1449.12
30.5965 1416.66
30.6029 1381.26
30.6093 1343.20
30.6157 1302.81
30.6233 1252.52
30.6308 1200.00
30.6460 1090.43
30.6588 995.564
30.6716 901.268
30.6844 809.579
30.6971 722.227
30.7035 680.530
30.7099 640.346
30.7163 601.771
30.7227 564.937
30.7291 529.779
30.7355 496.390
30.7419 464.780
30.7483 434.993
30.7565 399.541
30.7646 366.908
30.7687 351.565
30.7728 336.915
30.7768 322.904
30.7809 309.516
30.7850 296.702
30.7891 284.507
30.7931 272.880
30.7972 261.801
30.8013 251.251
30.8053 241.210
30.8094 231.659
30.8135 222.577
30.8199 209.198
30.8263 196.857
30.8327 185.480
30.8391 174.995
30.8455 165.337
30.8519 156.438
30.8583 148.240
30.8647 140.694
30.8711 133.725
30.8775 127.295
30.8839 121.356
30.8903 115.866
30.8967 110.785
30.9031 106.078
30.9095 101.711
30.9159 97.6605
30.9223 93.8858
30.9287 90.3686
30.9351 87.0864
30.9415 84.0188
30.9479 81.1470
30.9543 78.4545
30.9607 75.9261
30.9670 73.5518
30.9734 71.3117
30.9798 69.1987
30.9926 65.3172
31.0054 61.8320
31.0182 58.6917
31.0299 56.0914
31.0415 53.7081
31.0531 51.5129
31.0648 49.4882
31.0764 47.6125
31.0880 45.8734
31.0997 44.2557
31.1113 42.7476
31.1229 41.3377
31.1346 40.0193
31.1462 38.7832
31.1578 37.6223
31.1695 36.5294
31.1811 35.5008
31.1927 34.5304
31.2044 33.6138
31.2172 32.6623
31.2300 31.7660
31.2428 30.9207
31.2555 30.1229
31.2683 29.3680
31.2811 28.6538
31.3067 27.3340
31.3323 26.1428
31.3579 25.0644
31.3835 24.0840
31.4091 23.1899
31.4254 22.6609
31.4417 22.1604
31.4580 21.6863
31.4742 21.2370
31.5068 20.4048
31.5394 19.6521
31.5720 18.9683
31.6045 18.3454
31.6371 17.7758
31.6697 17.2535
31.6953 16.8726
31.7209 16.5154
31.7465 16.1800
31.7721 15.8644
31.7977 15.5671
31.8232 15.2867
31.8488 15.0219
31.8744 14.7715
31.9000 14.5343
31.9256 14.3096
31.9512 14.0964
31.9768 13.8939
32.0280 13.5180
32.0792 13.1769
32.1304 12.8662
32.1815 12.5822
32.2327 12.3219
32.2839 12.0826
32.3351 11.8620
32.3863 11.6580
32.4375 11.4692
32.4887 11.2938
32.5375 11.1378
32.5864 10.9918
32.6352 10.8549
32.6841 10.7263
32.7330 10.6052
32.7818 10.4912
32.8307 10.3836
32.8795 10.2819
32.9284 10.1858
32.9773 10.0947
33.0261 10.0083
33.0750 9.92621
33.1238 9.84820
33.1727 9.77395
33.2704 9.63573
33.3728 9.50398
33.4752 9.38391
33.5775 9.27404
33.6799 9.17314
33.7823 9.08015
33.8847 8.99419
33.9870 8.91447
34.0894 8.84034
34.1778 8.78039
34.2662 8.72393
34.3546 8.67063
34.4430 8.62012
34.5315 8.57213
34.6199 8.52653
34.7083 8.48315
34.7967 8.44183
34.9735 8.36475
35.1503 8.29424
35.3272 8.22940
35.5040 8.16952
35.7087 8.10555
35.9135 8.04659
36.1182 7.99196
36.3230 7.94111
36.5277 7.89357
36.7325 7.84895
36.9372 7.80690
37.1420 7.76724
37.3281 7.73297
37.5142 7.70006
37.7004 7.66852
37.8865 7.63824
38.0726 7.60905
38.2587 7.58090
38.6310 7.52728
39.0033 7.47677
39.3755 7.42884
39.7478 7.38306
40.1201 7.33909
40.5296 7.29247
40.9390 7.24735
41.3485 7.20346
41.7580 7.16060
41.9628 7.13950
42.1675 7.11859
42.3723 7.09787
42.5770 7.07732
42.7818 7.05693
42.9865 7.03671
43.1912 7.01665
43.3960 6.99678
43.6193 6.97531
43.8427 6.95410
44.0661 6.93322
44.2894 6.91273
44.5128 6.89274
44.7361 6.87337
44.9595 6.85480
45.0712 6.84590
45.1829 6.83730
45.3597 6.82440
45.5365 6.81260
45.7133 6.80215
45.8017 6.79755
45.8902 6.79344
45.9786 6.78986
46.0670 6.78691
46.1554 6.78464
46.2438 6.78315
46.3322 6.78253
46.4206 6.78291
46.5090 6.78447
46.5975 6.78737
46.6998 6.79267
46.8022 6.80037
46.9046 6.81092
47.0069 6.82484
47.1093 6.84277
47.2117 6.86553
47.2629 6.87901
47.3141 6.89408
47.3653 6.91092
47.4164 6.92969
47.4955 6.96300
47.5747 7.00234
47.6538 7.04877
47.7329 7.10358
47.7724 7.13463
47.8120 7.16839
47.8515 7.20515
47.8911 7.24522
47.9306 7.28894
47.9702 7.33669
48.0097 7.38891
48.0493 7.44606
48.1005 7.52829
48.1517 7.62106
48.2028 7.72607
48.2540 7.84521
48.3052 7.98089
48.3308 8.05578
48.3564 8.13592
48.3820 8.22179
48.4076 8.31384
48.4332 8.41267
48.4588 8.51888
48.5006 8.71054
48.5425 8.92748
48.5635 9.04675
48.5844 9.17403
48.6053 9.31003
48.6263 9.45551
48.6472 9.61133
48.6682 9.77846
48.6891 9.95797
48.7100 10.1511
48.7310 10.3592
48.7519 10.5837
48.7729 10.8265
48.7938 11.0895
48.8194 11.4418
48.8450 11.8323
48.8706 12.2671
48.8962 12.7525
48.9218 13.2973
48.9346 13.5948
48.9474 13.9109
48.9602 14.2475
48.9730 14.6059
48.9858 14.9887
48.9986 15.3977
49.0114 15.8359
49.0242 16.3061
49.0370 16.8115
49.0497 17.3556
49.0625 17.9435
49.0753 18.5794
49.0881 19.2702
49.1009 20.0218
49.1137 20.8434
49.1265 21.7441
49.1393 22.7355
49.1521 23.8301
49.1649 25.0461
49.1777 26.4011
49.1905 27.9207
49.2033 29.6307
49.2097 30.5686
49.2161 31.5677
49.2225 32.6331
49.2289 33.7707
49.2353 34.9867
49.2417 36.2880
49.2481 37.6821
49.2545 39.1746
49.2609 40.7789
49.2673 42.5022
49.2737 44.3549
49.2801 46.3479
49.2865 48.4931
49.2929 50.8033
49.2993 53.2920
49.3057 55.9693
49.3121 58.8592
49.3185 61.9737
49.3249 65.3302
49.3313 68.9469
49.3377 72.8425
49.3441 77.0371
49.3505 81.5510
49.3569 86.3976
49.3633 91.6139
49.3697 97.2149
49.3761 103.223
49.3825 109.651
49.3889 116.541
49.3953 123.906
49.4017 131.769
49.4080 140.137
49.4127 146.577
49.4174 153.296
49.4220 160.330
49.4267 167.655
49.4313 175.309
49.4360 183.264
49.4406 191.541
49.4453 200.145
49.4499 209.098
49.4546 218.364
49.4592 227.964
49.4639 237.898
49.4685 248.187
49.4732 258.786
49.4778 269.714
49.4825 280.965
49.4883 295.495
49.4941 310.510
49.5000 325.992
49.5058 341.891
49.5122 359.888
49.5186 378.353
49.5250 397.244
49.5314 416.508
49.5378 436.090
49.5442 455.898
49.5569 496.042
49.5697 536.380
49.5825 576.223
49.5953 614.859
49.6081 651.521
49.6209 685.519
49.6337 716.073
49.6450 739.621
49.6563 759.552
49.6633 770.023
49.6703 778.859
49.6774 786.012
49.6844 791.431
49.6922 795.371
49.7000 797.088
49.7125 795.186
49.7219 790.032
49.7313 781.770
49.7406 770.499
49.7500 756.395
49.7608 736.954
49.7715 714.372
49.7822 688.979
49.7930 661.229
49.8037 631.524
49.8145 600.302
49.8252 567.997
49.8359 535.033
49.8574 468.692
49.8789 404.212
49.8872 380.262
49.8955 357.063
49.9038 334.672
49.9121 313.163
49.9204 292.592
49.9287 273.000
49.9370 254.417
49.9453 236.858
49.9522 223.162
49.9590 210.180
49.9658 197.867
49.9727 186.248
49.9795 175.275
49.9863 164.962
49.9932 155.259
50.0000 146.172
50.0050 139.840
50.0101 133.812
50.0151 128.080
50.0202 122.642
50.0252 117.468
50.0302 112.557
50.0353 107.899
50.0403 103.492
50.0453 99.3072
50.0504 95.3439
50.0554 91.5916
50.0605 88.0473
50.0655 84.6869
50.0705 81.5081
50.0756 78.5017
50.0806 75.6641
50.0854 73.0947
50.0902 70.6590
50.0950 68.3497
50.0998 66.1647
50.1046 64.0883
50.1095 62.1190
50.1191 58.4817
50.1287 55.2013
50.1383 52.2445
50.1479 49.5692
50.1575 47.1489
50.1671 44.9498
50.1768 42.9511
50.1864 41.1260
50.1960 39.4586
50.2056 37.9280
50.2152 36.5219
50.2248 35.2240
50.2344 34.0253
50.2445 32.8618
50.2546 31.7853
50.2647 30.7845
50.2747 29.8536
50.2848 28.9839
50.2949 28.1711
50.3050 27.4091
50.3150 26.6933
50.3251 26.0190
50.3352 25.3839
50.3453 24.7835
50.3553 24.2162
50.3755 23.1688
50.3956 22.2245
50.4112 21.5559
50.4268 20.9348
50.4423 20.3565
50.4579 19.8171
50.4735 19.3124
50.4890 18.8396
50.5046 18.3959
50.5202 17.9791
50.5357 17.5863
50.5513 17.2161
50.5669 16.8664
50.5824 16.5361
50.6136 15.9266
50.6447 15.3781
50.6649 15.0515
50.6850 14.7450
50.7052 14.4570
50.7253 14.1860
50.7454 13.9305
50.7656 13.6894
50.7857 13.4615
50.8059 13.2460
50.8462 12.8480
50.8865 12.4895
50.9268 12.1652
50.9670 11.8708
50.9945 11.6853
51.0220 11.5111
51.0495 11.3472
51.0769 11.1928
51.1044 11.0471
51.1319 10.9097
51.1868 10.6568
51.2418 10.4301
51.2967 10.2262
51.3517 10.0423
51.4066 9.87611
51.4652 9.71619
51.5238 9.57237
51.5824 9.44305
51.6410 9.32696
51.6996 9.22297
51.7582 9.13026
51.8169 9.04816
51.8755 8.97619
51.9560 8.89317
51.9963 8.85847
52.0366 8.82834
52.0769 8.80280
52.1172 8.78197
52.1575 8.76596
52.1978 8.75497
52.2381 8.74922
52.2784 8.74902
52.3187 8.75473
52.3590 8.76679
52.3993 8.78573
52.4396 8.81220
52.4799 8.84697
52.5202 8.89100
52.5605 8.94543
52.6007 9.01161
52.6410 9.09120
52.6813 9.18619
52.7216 9.29904
52.7619 9.43270
52.8022 9.59090
52.8224 9.68063
52.8425 9.77828
52.8773 9.96809
52.8947 10.0742
52.9121 10.1888
52.9295 10.3126
52.9469 10.4464
52.9643 10.5913
52.9817 10.7485
52.9991 10.9191
53.0165 11.1048
53.0339 11.3071
53.0513 11.5282
53.0687 11.7702
53.0861 12.0359
53.1035 12.3284
53.1209 12.6513
53.1410 13.0697
53.1612 13.5437
53.1713 13.8052
53.1813 14.0847
53.1914 14.3843
53.2015 14.7063
53.2115 15.0533
53.2216 15.4274
53.2317 15.8322
53.2418 16.2713
53.2518 16.7495
53.2619 17.2706
53.2720 17.8407
53.2820 18.4663
53.2912 19.0897
53.3004 19.7715
53.3095 20.5190
53.3187 21.3402
53.3278 22.2444
53.3370 23.2419
53.3462 24.3445
53.3553 25.5636
53.3645 26.9164
53.3736 28.4177
53.3828 30.0850
53.3919 31.9357
53.4011 33.9949
53.4103 36.2836
53.4194 38.8263
53.4286 41.6462
53.4336 43.3289
53.4387 45.1097
53.4437 46.9936
53.4487 48.9814
53.4538 51.0863
53.4588 53.3050
53.4638 55.6516
53.4689 58.1221
53.4739 60.7314
53.4789 63.4802
53.4840 66.3737
53.4890 69.4107
53.4941 72.6083
53.4991 75.9587
53.5041 79.4800
53.5092 83.1625
53.5142 87.0251
53.5192 91.0646
53.5293 99.6789
53.5394 109.046
53.5495 119.163
53.5595 130.055
53.5696 141.698
53.5797 154.084
53.5897 167.184
53.5966 176.508
53.6035 186.126
53.6104 196.017
53.6172 206.155
53.6241 216.511
53.6310 227.055
53.6378 237.750
53.6447 248.544
53.6534 262.330
53.6621 276.140
53.6708 289.879
53.6795 303.443
53.6896 318.784
53.6996 333.578
53.7097 347.652
53.7198 360.838
53.7299 372.980
53.7399 383.898
53.7493 392.806
53.7586 400.447
53.7686 407.109
53.7785 412.132
53.7893 415.631
53.8000 417.094
53.8108 416.497
53.8215 413.849
53.8298 410.458
53.8380 405.929
53.8463 400.304
53.8545 393.637
53.8691 379.509
53.8836 362.750
53.8982 343.815
53.9127 323.202
53.9260 303.417
53.9392 283.060
53.9524 262.476
53.9656 242.000
53.9802 219.942
53.9948 198.726
54.0093 178.606
54.0166 169.017
54.0239 159.786
54.0325 149.333
54.0411 139.403
54.0497 130.007
54.0583 121.150
54.0669 112.831
54.0755 105.045
54.0841 97.7816
54.0926 91.0342
54.0999 85.7000
54.1072 80.7057
54.1145 76.0382
54.1218 71.6894
54.1290 67.6329
54.1363 63.8649
54.1436 60.3599
54.1509 57.1124
54.1581 54.0984
54.1654 51.3076
54.1727 48.7256
54.1800 46.3414
54.1872 44.1348
54.1945 42.0989
54.2018 40.2157
54.2091 38.4784
54.2163 36.8713
54.2236 35.3862
54.2309 34.0134
54.2382 32.7454
54.2455 31.5701
54.2527 30.4814
54.2600 29.4720
54.2673 28.5364
54.2746 27.6659
54.2818 26.8561
54.2891 26.1017
54.2964 25.3990
54.3037 24.7418
54.3110 24.1269
54.3182 23.5509
54.3255 23.0113
54.3394 22.0678
54.3533 21.2263
54.3672 20.4711
54.3811 19.7901
54.3950 19.1729
54.4089 18.6113
54.4227 18.0981
54.4366 17.6274
54.4505 17.1943
54.4644 16.7946
54.4783 16.4246
54.4922 16.0814
54.5061 15.7622
54.5200 15.4649
54.5339 15.1873
54.5478 14.9279
54.5650 14.6293
54.5822 14.3536
54.5994 14.0985
54.6166 13.8622
54.6338 13.6429
54.6510 13.4391
54.6854 13.0735
54.7198 12.7566
54.7542 12.4816
54.7886 12.2431
54.8229 12.0368
54.8547 11.8717
54.8864 11.7288
54.9182 11.6063
54.9499 11.5026
54.9791 11.4232
55.0082 11.3580
55.0373 11.3064
55.0664 11.2681
55.0955 11.2428
55.1246 11.2304
55.1537 11.2309
55.1828 11.2444
55.2119 11.2712
55.2410 11.3117
55.2701 11.3664
55.2992 11.4360
55.3283 11.5212
55.3574 11.6231
55.3865 11.7429
55.4156 11.8820
55.4500 12.0737
55.4844 12.2980
55.5188 12.5591
55.5532 12.8617
55.5876 13.2119
55.6220 13.6168
55.6564 14.0852
55.6736 14.3465
55.6908 14.6277
55.7199 15.1550
55.7490 15.7549
55.7636 16.0862
55.7782 16.4403
55.7927 16.8194
55.8073 17.2258
55.8218 17.6624
55.8364 18.1312
55.8509 18.6359
55.8655 19.1801
55.8800 19.7683
55.8946 20.4044
55.9091 21.0944
55.9237 21.8447
55.9349 22.4707
55.9462 23.1412
55.9574 23.8605
55.9687 24.6331
55.9799 25.4663
55.9912 26.3654
56.0024 27.3398
56.0136 28.3968
56.0249 29.5487
56.0361 30.8068
56.0474 32.1854
56.0586 33.6996
56.0699 35.3714
56.0811 37.2203
56.0924 39.2756
56.1036 41.5642
56.1109 43.1883
56.1182 44.9363
56.1255 46.8200
56.1327 48.8496
56.1400 51.0446
56.1473 53.4143
56.1546 55.9821
56.1618 58.7588
56.1691 61.7718
56.1764 65.0339
56.1837 68.5768
56.1909 72.4151
56.1982 76.5854
56.2018 78.8017
56.2055 81.1039
56.2091 83.5082
56.2128 86.0124
56.2164 88.6202
56.2200 91.3282
56.2253 95.4830
56.2306 99.8794
56.2359 104.538
56.2412 109.474
56.2465 114.710
56.2518 120.241
56.2571 126.091
56.2624 132.275
56.2677 138.821
56.2730 145.718
56.2782 152.994
56.2835 160.663
56.2888 168.740
56.2941 177.239
56.2994 186.173
56.3047 195.558
56.3090 203.544
56.3133 211.825
56.3176 220.423
56.3219 229.346
56.3262 238.597
56.3305 248.182
56.3348 258.106
56.3391 268.371
56.3431 278.154
56.3470 288.208
56.3543 307.462
56.3616 327.718
56.3689 348.972
56.3761 371.180
56.3834 394.385
56.3907 418.493
56.3980 443.533
56.4052 469.388
56.4125 496.072
56.4198 523.480
56.4271 551.536
56.4344 580.111
56.4416 609.183
56.4489 638.567
56.4635 697.947
56.4780 757.250
56.4926 815.245
56.5071 870.782
56.5217 922.525
56.5362 969.269
56.5508 1009.84
56.5592 1030.03
56.5676 1047.61
56.5760 1062.45
56.5844 1074.40
56.5972 1086.87
56.6100 1092.09
56.6196 1091.19
56.6293 1086.18
56.6389 1077.13
56.6485 1064.15
56.6581 1047.44
56.6729 1014.79
56.6878 974.664
56.7023 929.118
56.7169 878.626
56.7281 836.975
56.7394 793.717
56.7506 749.380
56.7618 704.507
56.7909 589.352
56.8055 534.073
56.8200 481.359
56.8346 431.691
56.8419 408.127
56.8491 385.500
56.8564 363.777
56.8637 343.033
56.8710 323.223
56.8782 304.403
56.8852 287.307
56.8921 271.101
56.8991 255.725
56.9060 241.208
56.9130 227.485
56.9199 214.574
56.9268 202.429
56.9338 191.021
56.9407 180.306
56.9477 170.286
56.9546 160.911
56.9615 152.152
56.9685 143.964
56.9754 136.339
56.9824 129.234
56.9893 122.617
56.9966 116.169
57.0039 110.199
57.0111 104.660
57.0184 99.5349
57.0257 94.7806
57.0330 90.3820
57.0402 86.3006
57.0475 82.5225
57.0548 79.0141
57.0621 75.7631
57.0693 72.7403
57.0766 69.9350
57.0839 67.3220
57.0912 64.8924
57.0984 62.6276
57.1057 60.5139
57.1150 58.0208
57.1242 55.7291
57.1335 53.6180
57.1427 51.6687
57.1520 49.8648
57.1613 48.1916
57.1705 46.6360
57.1798 45.1880
57.1890 43.8343
57.1983 42.5674
57.2076 41.3794
57.2168 40.2643
57.2261 39.2133
57.2353 38.2221
57.2446 37.2857
57.2538 36.4006
57.2684 35.1005
57.2829 33.9015
57.2975 32.7922
57.3120 31.7628
57.3266 30.8051
57.3411 29.9119
57.3557 29.0770
57.3702 28.2953
57.3848 27.5613
57.3993 26.8711
57.4139 26.2211
57.4284 25.6080
57.4430 25.0288
57.4575 24.4809
57.4721 23.9619
57.4866 23.4700
57.5157 22.5584
57.5448 21.7330
57.5739 20.9825
57.6030 20.2980
57.6321 19.6710
57.6612 19.0951
57.6903 18.5646
57.7194 18.0747
57.7459 17.6606
57.7723 17.2738
57.7988 16.9116
57.8252 16.5719
57.8517 16.2526
57.8781 15.9523
57.9046 15.6691
57.9310 15.4019
57.9575 15.1491
57.9839 14.9100
58.0104 14.6834
58.0368 14.4684
58.0897 14.0699
58.1426 13.7088
58.1717 13.5243
58.2008 13.3490
58.2590 13.0233
58.3172 12.7271
58.3754 12.4569
58.4336 12.2094
58.4918 11.9819
58.5500 11.7723
58.6082 11.5786
58.6558 11.4306
58.7034 11.2914
58.7510 11.1602
58.7986 11.0362
58.8462 10.9189
58.8939 10.8077
58.9415 10.7023
58.9891 10.6021
59.0367 10.5067
59.0843 10.4160
59.1795 10.2468
59.2748 10.0925
59.3700 9.95106
59.4282 9.87032
59.4864 9.79353
59.5446 9.72038
59.6028 9.65063
59.7191 9.52038
59.8355 9.40115
59.9519 9.29158
60.0683 9.19050
60.1847 9.09695
60.3011 9.01007
60.3910 8.94706
60.4810 8.88733
60.5709 8.83064
60.6608 8.77678
60.7508 8.72550
60.8407 8.67658
61.0206 8.58503
61.2005 8.50104
61.3803 8.42369
61.5602 8.35217
61.7401 8.28579
61.8565 8.24529
61.9728 8.20655
62.2056 8.13386
62.4384 8.06684
62.6712 8.00476
62.9040 7.94701
63.1367 7.89308
63.3695 7.84253
63.6023 7.79499
63.8033 7.75611
64.0044 7.71911
64.2054 7.68387
64.4064 7.65005
64.6075 7.61757
64.8085 7.58637
65.2106 7.52746
65.6126 7.47262
66.0147 7.42129
66.4168 7.37298
66.8188 7.32731
67.1574 7.29067
67.4960 7.25549
67.8346 7.22164
68.1732 7.18899
68.5118 7.15741
68.8503 7.12689
69.5275 7.06835
70.2047 7.01268
70.8818 6.95947
71.5590 6.90832
72.2362 6.85888
72.7440 6.82277
73.2519 6.78734
74.2677 6.71813
75.2834 6.65075
76.2992 6.58455
77.2303 6.52457
78.1614 6.46491
79.0925 6.40531
80.0236 6.34551
80.9547 6.28526
81.8858 6.22432
82.8169 6.16245
83.7480 6.09945
84.6791 6.03501
85.6102 5.96895
86.5413 5.90098
87.4724 5.83076
88.4035 5.75809
89.3346 5.68251
89.8002 5.64356
90.2657 5.60369
90.7313 5.56295
91.1968 5.52128
91.8317 5.46271
92.4665 5.40205
93.1014 5.33911
93.7362 5.27371
94.0537 5.24018
94.3711 5.20582
94.6885 5.17071
95.0059 5.13485
95.3233 5.09820
95.6408 5.06072
95.9582 5.02240
96.2756 4.98319
96.7412 4.92400
97.2067 4.86274
97.6723 4.79929
97.9050 4.76672
98.1378 4.73357
98.3706 4.69983
98.6034 4.66551
98.8361 4.63059
99.0689 4.59507
99.3017 4.55896
99.5345 4.52228
99.7672 4.48502
100.000 4.44724
100.300 4.39789
100.599 4.34780
100.898 4.29710
101.198 4.24606
101.348 4.22047
101.497 4.19492
101.647 4.16946
101.797 4.14413
101.946 4.11902
102.096 4.09421
102.246 4.06983
102.396 4.04599
102.579 4.01778
102.762 3.99091
102.945 3.96576
103.127 3.94280
103.310 3.92260
103.493 3.90587
103.676 3.89351
103.859 3.88661
104.026 3.88622
104.192 3.89277
104.275 3.89913
104.359 3.90786
104.442 3.91921
104.525 3.93345
104.608 3.95096
104.691 3.97208
104.774 3.99721
104.858 4.02677
104.941 4.06135
105.024 4.10152
105.107 4.14799
105.190 4.20153
105.282 4.26982
105.373 4.34925
105.465 4.44142
105.556 4.54821
105.648 4.67185
105.739 4.81498
105.831 4.98072
105.922 5.17261
105.997 5.35257
106.072 5.55580
106.147 5.78624
106.222 6.04728
106.296 6.34436
106.334 6.50781
106.371 6.68237
106.409 6.86947
106.446 7.06908
106.484 7.28276
106.521 7.51170
106.546 7.67388
106.571 7.84388
106.596 8.02215
106.621 8.20841
106.646 8.40468
106.671 8.60992
106.696 8.82639
106.721 9.05299
106.738 9.22111
106.756 9.39538
106.774 9.57608
106.791 9.76240
106.809 9.95679
106.827 10.1585
106.844 10.3679
106.862 10.5841
106.879 10.7957
106.895 11.0150
106.912 11.2438
106.929 11.4797
106.945 11.7259
106.962 11.9801
106.985 12.3467
107.008 12.7313
107.019 12.9332
107.030 13.1387
107.042 13.3499
107.053 13.5668
107.065 13.7916
107.076 14.0208
107.088 14.2584
107.099 14.5006
107.111 14.7520
107.122 15.0083
107.133 15.2743
107.145 15.5458
107.156 15.8276
107.168 16.1153
107.179 16.4142
107.191 16.7194
107.202 17.0367
107.214 17.3608
107.225 17.6949
107.236 18.0394
107.249 18.4295
107.261 18.8332
107.274 19.2510
107.286 19.6801
107.299 20.1281
107.311 20.5923
107.324 21.0734
107.336 21.5683
107.348 22.0436
107.359 22.5311
107.371 23.0400
107.382 23.5623
107.393 24.1080
107.405 24.6684
107.416 25.2491
107.428 25.8512
107.439 26.4813
107.451 27.1295
107.462 27.8024
107.473 28.5012
107.485 29.2338
107.496 29.9890
107.508 30.7744
107.519 31.5918
107.531 32.4506
107.542 33.3378
107.553 34.2709
107.565 35.2361
107.576 36.2526
107.588 37.3055
107.599 38.4061
107.611 39.5575
107.622 40.7739
107.633 42.0377
107.645 43.3752
107.656 44.7673
107.668 46.2434
107.679 47.7830
107.691 49.4043
107.702 51.1138
107.714 52.9345
107.725 54.8426
107.736 56.8803
107.748 59.0217
107.759 61.3152
107.771 63.7328
107.782 66.3070
107.794 69.0525
107.805 72.0121
107.816 75.1530
107.828 78.5510
107.839 82.1702
107.851 86.1001
107.862 90.3010
107.874 94.8378
107.885 99.7461
107.894 103.862
107.903 108.197
107.912 112.873
107.920 117.809
107.929 123.142
107.938 128.781
107.947 134.812
107.956 141.267
107.965 148.262
107.973 155.676
107.982 163.718
107.991 172.248
108.000 181.506
108.009 191.332
108.018 201.874
108.026 213.186
108.032 221.089
108.038 229.220
108.044 237.729
108.049 246.632
108.055 255.947
108.061 265.689
108.066 275.878
108.072 286.532
108.078 297.867
108.084 309.514
108.089 321.681
108.095 334.388
108.101 347.655
108.106 361.502
108.112 375.948
108.118 391.012
108.129 423.371
108.141 458.174
108.152 496.190
108.164 536.908
108.175 581.184
108.187 628.380
108.198 679.439
108.209 733.571
108.221 791.803
108.232 853.173
108.244 918.781
108.255 987.474
108.267 1060.41
108.278 1136.24
108.290 1215.46
108.301 1297.89
108.321 1448.05
108.340 1604.97
108.360 1768.37
108.380 1934.30
108.403 2127.89
108.426 2316.92
108.449 2498.01
108.471 2665.07
108.483 2741.39
108.494 2812.34
108.506 2877.34
108.517 2935.84
108.531 2996.87
108.544 3047.06
108.558 3085.78
108.572 3112.56
108.590 3129.13
108.595 3129.83
108.610 3122.19
108.625 3099.77
108.640 3062.94
108.655 3012.32
108.669 2950.56
108.684 2877.95
108.698 2795.12
108.713 2703.23
108.728 2600.64
108.743 2491.17
108.773 2257.28
108.832 1768.14
108.853 1605.18
108.873 1449.39
108.893 1301.77
108.903 1231.13
108.913 1163.69
108.928 1068.96
108.943 980.092
108.958 897.188
108.973 820.261
108.981 783.781
108.988 749.238
108.995 715.678
109.003 683.971
109.010 653.233
109.018 624.253
109.025 596.215
109.033 569.830
109.040 544.349
109.048 520.096
109.055 497.032
109.063 475.399
109.070 454.571
109.077 435.062
109.085 416.302
109.092 398.750
109.100 381.890
109.107 366.129
109.115 351.002
109.122 336.873
109.130 323.319
109.137 310.666
109.145 298.533
109.152 287.209
109.159 276.776
109.166 267.022
109.173 257.772
109.180 248.998
109.188 240.675
109.195 232.778
109.209 218.170
109.223 204.910
109.237 193.025
109.252 182.275
109.266 172.531
109.280 163.619
109.294 155.564
109.308 148.210
109.323 141.478
109.337 135.300
109.351 129.613
109.365 124.364
109.379 119.508
109.394 114.788
109.409 110.413
109.424 106.346
109.439 102.557
109.454 99.0178
109.469 95.7043
109.484 92.5956
109.499 89.6731
109.514 86.9206
109.528 84.3237
109.543 81.8694
109.558 79.5465
109.588 75.2547
109.618 71.3788
109.640 68.7852
109.661 66.3635
109.683 64.0975
109.705 61.9826
109.726 59.9869
109.748 58.1095
109.770 56.3404
109.791 54.6784
109.813 53.1004
109.835 51.6071
109.856 50.1923
109.878 48.8562
109.921 46.3689
109.965 44.1209
109.995 42.6888
110.024 41.3493
110.054 40.0902
110.084 38.9048
110.114 37.7870
110.144 36.7317
110.173 35.7340
110.203 34.7895
110.233 33.8943
110.263 33.0449
110.322 31.4707
110.382 30.0443
110.442 28.7469
110.501 27.5625
110.561 26.4777
110.620 25.4811
110.680 24.5629
110.740 23.7147
110.799 22.9290
110.859 22.1996
110.918 21.5209
110.978 20.8868
111.038 20.2952
111.097 19.7412
111.157 19.2213
111.216 18.7328
111.276 18.2728
111.336 17.8392
111.395 17.4297
111.455 17.0420
111.515 16.6755
111.574 16.3282
111.634 15.9984
111.693 15.6851
111.753 15.3870
111.872 14.8323
111.991 14.3267
112.111 13.8646
112.230 13.4405
112.349 13.0499
112.468 12.6890
112.587 12.3546
112.707 12.0439
112.826 11.7544
112.934 11.5080
113.043 11.2760
113.151 11.0570
113.259 10.8498
113.368 10.6534
113.476 10.4671
113.585 10.2901
113.693 10.1218
113.801 9.96127
113.910 9.80811
114.018 9.66177
114.126 9.52189
114.343 9.25912
114.560 9.01692
114.798 8.77091
115.037 8.54369
115.275 8.33273
115.514 8.13597
115.752 7.95159
115.991 7.77825
116.229 7.61459
116.467 7.45962
116.749 7.28649
117.031 7.12228
117.313 6.96592
117.595 6.81661
117.876 6.67347
118.158 6.53575
118.440 6.40275
118.722 6.27393
118.949 6.17251
119.177 6.07320
119.404 5.97576
119.632 5.88001
119.860 5.78575
120.087 5.69282
120.315 5.60108
120.542 5.51038
120.770 5.42062
120.998 5.33170
121.225 5.24354
121.453 5.15606
121.680 5.06923
121.908 4.98302
122.136 4.89739
122.363 4.81244
122.602 4.72416
122.840 4.63680
123.079 4.55044
123.317 4.46538
123.555 4.38185
123.794 4.30032
124.032 4.22128
124.271 4.14540
124.509 4.07352
124.748 4.00681
124.867 3.97579
124.986 3.94664
125.105 3.91958
125.224 3.89488
125.344 3.87285
125.463 3.85388
125.582 3.83835
125.701 3.82672
125.821 3.81953
125.940 3.81737
126.059 3.82090
126.178 3.83090
126.308 3.85023
126.438 3.87977
126.568 3.92132
126.698 3.97682
126.828 4.04863
126.958 4.13936
127.089 4.25239
127.219 4.39147
127.286 4.47590
127.354 4.56933
127.422 4.67289
127.490 4.78726
127.557 4.91385
127.591 4.98204
127.625 5.05349
127.659 5.12881
127.693 5.20772
127.727 5.29088
127.760 5.37801
127.790 5.45849
127.820 5.54256
127.850 5.63038
127.880 5.72213
127.909 5.81798
127.939 5.91812
127.969 6.02277
127.999 6.13212
128.020 6.21251
128.041 6.29507
128.062 6.38024
128.083 6.46812
128.104 6.55880
128.125 6.65238
128.146 6.74895
128.167 6.84863
128.194 6.98203
128.213 7.07888
128.232 7.17856
128.251 7.28118
128.270 7.38626
128.296 7.53472
128.321 7.68860
128.347 7.84936
128.373 8.01605
128.399 8.19028
128.424 8.37100
128.450 8.55924
128.476 8.75533
128.500 8.94913
128.525 9.15069
128.549 9.36039
128.573 9.57861
128.598 9.80575
128.622 10.0422
128.647 10.2885
128.671 10.5440
128.686 10.7059
128.701 10.8720
128.716 11.0423
128.731 11.2171
128.745 11.3963
128.760 11.5803
128.775 11.7691
128.790 11.9628
128.805 12.1617
128.820 12.3658
128.835 12.5755
128.850 12.7907
128.865 13.0118
128.880 13.2389
128.894 13.4722
128.909 13.7119
128.924 13.9583
128.939 14.2115
128.954 14.4718
128.969 14.7395
128.984 15.0147
128.999 15.2978
129.014 15.5889
129.029 15.8885
129.058 16.5142
129.088 17.1772
129.118 17.8804
129.148 18.6269
129.178 19.4200
129.207 20.2633
129.237 21.1609
129.267 22.1172
129.297 23.1371
129.327 24.2261
129.356 25.3901
129.386 26.6357
129.416 27.9751
129.446 29.4075
129.476 30.9465
129.505 32.6025
129.535 34.3872
129.565 36.3137
129.580 37.3348
129.595 38.3971
129.610 39.5028
129.625 40.6542
129.640 41.8538
129.654 43.1044
129.669 44.4087
129.684 45.7700
129.699 47.1914
129.714 48.6765
129.729 50.2291
129.744 51.8535
129.759 53.5541
129.774 55.3356
129.789 57.2034
129.803 59.1631
129.818 61.2210
129.833 63.3838
129.848 65.6588
129.863 68.0542
129.878 70.5787
129.893 73.2422
129.908 76.0553
129.923 79.0299
129.938 82.1791
129.952 85.5174
129.967 89.0610
129.982 92.8280
129.997 96.8384
130.012 101.115
130.027 105.683
130.042 110.570
130.057 115.809
130.072 121.436
130.087 127.491
130.101 134.020
130.114 139.754
130.126 145.873
130.138 152.411
130.150 159.406
130.162 166.902
130.175 174.944
130.187 183.586
130.199 192.883
130.211 202.897
130.223 213.698
130.236 225.359
130.248 237.963
130.260 251.597
130.272 266.358
130.284 282.350
130.297 299.538
130.304 310.906
130.311 322.693
130.319 335.247
130.326 348.266
130.334 362.134
130.341 376.514
130.349 391.831
130.356 407.711
130.364 424.621
130.371 442.147
130.379 460.803
130.386 480.130
130.393 500.692
130.401 521.981
130.408 544.616
130.416 568.033
130.423 592.909
130.431 618.624
130.438 645.915
130.446 674.096
130.453 703.973
130.460 734.789
130.468 767.418
130.475 801.030
130.490 873.134
130.505 951.386
130.520 1036.04
130.535 1127.31
130.550 1226.03
130.565 1330.97
130.580 1442.80
130.595 1561.43
130.610 1686.71
130.624 1818.38
130.639 1956.05
130.654 2099.23
130.673 2288.83
130.692 2483.78
130.730 2886.08
130.760 3203.11
130.790 3509.43
130.819 3793.78
130.834 3924.13
130.849 4044.76
130.868 4178.36
130.886 4292.31
130.904 4385.41
130.923 4456.07
130.941 4503.99
130.960 4526.03
130.966 4527.61
130.987 4512.71
131.007 4467.70
131.027 4393.67
131.048 4292.38
131.064 4194.82
131.079 4083.82
131.095 3959.48
131.111 3824.94
131.127 3682.97
131.143 3533.60
131.174 3220.24
131.242 2515.77
131.258 2359.17
131.274 2206.82
131.290 2059.55
131.305 1918.94
131.321 1783.75
131.337 1655.31
131.352 1533.91
131.368 1420.43
131.384 1313.46
131.399 1213.73
131.415 1121.11
131.431 1035.93
131.446 956.859
131.462 884.161
131.478 817.510
131.493 756.922
131.505 715.993
131.516 677.731
131.527 641.990
131.539 608.629
131.550 577.509
131.562 548.490
131.573 521.442
131.584 496.234
131.596 472.743
131.607 450.852
131.619 430.447
131.630 411.423
131.641 393.678
131.653 377.119
131.664 361.656
131.676 347.206
131.691 328.824
131.707 312.034
131.723 296.670
131.738 282.668
131.754 269.716
131.770 257.789
131.785 246.780
131.801 236.659
131.817 227.212
131.832 218.434
131.848 210.259
131.864 202.677
131.879 195.539
131.895 188.891
131.911 182.608
131.926 176.736
131.942 171.166
131.958 165.910
131.973 160.941
131.989 156.268
132.020 147.575
132.052 139.749
132.083 132.624
132.114 126.153
132.146 120.215
132.177 114.783
132.207 109.981
132.237 105.547
132.267 101.428
132.297 97.5936
132.327 94.0044
132.357 90.6607
132.387 87.5289
132.417 84.5904
132.447 81.8198
132.476 79.2208
132.506 76.7706
132.536 74.4575
132.566 72.2709
132.596 70.2011
132.626 68.2397
132.656 66.3786
132.687 64.5245
132.719 62.7713
132.781 59.5179
132.844 56.5714
132.907 53.8922
132.969 51.4472
133.032 49.2084
133.095 47.1520
133.157 45.2575
133.203 43.9714
133.249 42.7556
133.294 41.6049
133.340 40.5143
133.385 39.4795
133.431 38.4963
133.522 36.6707
133.613 35.0119
133.705 33.4985
133.796 32.1128
133.887 30.8413
133.950 30.0249
134.012 29.2522
134.075 28.5199
134.138 27.8251
134.200 27.1652
134.263 26.5377
134.326 25.9405
134.388 25.3725
134.451 24.8302
134.514 24.3130
134.577 23.8195
134.639 23.3485
134.702 22.8989
134.765 22.4698
134.827 22.0606
134.890 21.6712
134.981 21.1374
135.055 20.7328
135.129 20.3546
135.203 20.0038
135.278 19.6819
135.352 19.3916
135.389 19.2592
135.426 19.1365
135.463 19.0237
135.500 18.9223
135.537 18.8329
135.574 18.7568
135.625 18.6763
135.676 18.6297
135.702 18.6210
135.728 18.6236
135.753 18.6385
135.779 18.6672
135.805 18.7115
135.830 18.7731
135.856 18.8548
135.882 18.9589
135.907 19.0896
135.933 19.2503
135.959 19.4476
135.984 19.6868
136.000 19.8582
136.016 20.0512
136.031 20.2686
136.047 20.5121
136.063 20.7887
136.078 21.1014
136.094 21.4556
136.110 21.8549
136.125 22.3118
136.141 22.8325
136.157 23.4271
136.172 24.1030
136.188 24.8825
136.204 25.7716
136.219 26.8000
136.235 27.9758
136.247 29.0177
136.259 30.1710
136.271 31.4574
136.283 32.8924
136.296 34.4926
136.308 36.2761
136.320 38.2626
136.332 40.4734
136.344 42.9529
136.356 45.6848
136.368 48.7145
136.380 52.0694
136.392 55.7782
136.405 59.8710
136.417 64.3787
136.429 69.3332
136.437 72.8245
136.444 76.4808
136.452 80.4047
136.460 84.5059
136.468 88.8981
136.476 93.4787
136.484 98.3100
136.491 103.400
136.499 108.827
136.507 114.460
136.515 120.451
136.523 126.654
136.531 133.235
136.539 140.032
136.546 147.130
136.554 154.532
136.561 161.236
136.568 168.175
136.575 175.349
136.581 182.646
136.588 190.285
136.595 198.156
136.608 214.460
136.622 231.774
136.635 249.801
136.649 268.614
136.662 288.145
136.672 301.975
136.681 316.078
136.700 344.803
136.708 358.236
136.722 381.051
136.737 403.830
136.757 435.785
136.785 480.097
136.801 503.377
136.816 525.368
136.832 546.081
136.848 565.109
136.863 582.204
136.879 597.051
136.893 608.100
136.906 617.265
136.925 626.581
136.943 632.007
136.950 633.006
136.964 633.432
136.984 629.994
137.005 621.783
137.021 612.321
137.037 600.295
137.053 585.890
137.069 569.320
137.082 554.328
137.095 538.186
137.121 503.187
137.136 480.245
137.152 456.532
137.184 407.872
137.216 359.231
137.232 335.471
137.248 312.479
137.264 290.119
137.279 268.669
137.295 248.235
137.311 229.013
137.327 210.816
137.343 193.904
137.351 185.792
137.359 178.077
137.367 170.657
137.375 163.529
137.383 156.605
137.390 150.054
137.398 143.706
137.406 137.714
137.414 131.920
137.422 126.463
137.430 121.198
137.438 116.249
137.446 111.483
137.454 107.011
137.462 102.711
137.470 98.6844
137.478 94.8192
137.486 91.2039
137.494 87.7808
137.502 84.5415
137.514 79.8449
137.526 75.5441
137.539 71.6095
137.551 68.0408
137.563 64.7526
137.575 61.7496
137.588 59.0074
137.600 56.5227
137.612 54.2334
137.624 52.1411
137.637 50.2272
137.649 48.4885
137.661 46.8811
137.673 45.4172
137.686 44.0599
137.698 42.8197
137.714 41.3450
137.730 40.0117
137.746 38.8021
137.761 37.7073
137.777 36.7001
137.793 35.7761
137.809 34.9253
137.825 34.1438
137.841 33.4144
137.857 32.7356
137.873 32.1021
137.888 31.5126
137.904 30.9556
137.920 30.4313
137.936 29.9367
137.952 29.4718
137.977 28.7954
138.001 28.1728
138.026 27.5928
138.050 27.0548
138.075 26.5503
138.099 26.0795
138.124 25.6373
138.148 25.2210
138.173 24.8266
138.197 24.4553
138.222 24.1022
138.246 23.7685
138.271 23.4501
138.296 23.1483
138.345 22.5860
138.376 22.2476
138.408 21.9288
138.440 21.6261
138.472 21.3398
138.503 21.0670
138.535 20.8082
138.599 20.3255
138.662 19.8847
138.726 19.4802
138.789 19.1072
138.853 18.7618
138.910 18.4688
138.968 18.1943
139.026 17.9355
139.084 17.6917
139.141 17.4608
139.199 17.2423
139.257 17.0348
139.314 16.8374
139.372 16.6488
139.430 16.4691
139.545 16.1326
139.661 15.8228
139.776 15.5368
139.857 15.3485
139.938 15.1696
140.019 14.9990
140.100 14.8361
140.180 14.6801
140.261 14.5308
140.423 14.2501
140.585 13.9900
140.746 13.7482
140.908 13.5219
141.069 13.3097
141.197 13.1516
141.324 13.0007
141.451 12.8563
141.578 12.7179
141.832 12.4573
142.086 12.2157
142.340 11.9906
142.594 11.7800
142.848 11.5821
143.102 11.3957
143.344 11.2274
143.587 11.0671
143.829 10.9139
144.072 10.7674
144.314 10.6270
144.557 10.4921
144.799 10.3623
145.041 10.2371
145.284 10.1161
145.526 9.99901
146.011 9.77519
146.496 9.56325
146.981 9.36136
147.351 9.21320
147.720 9.06922
148.090 8.92883
148.459 8.79151
148.944 8.61498
149.429 8.44175
149.914 8.27075
150.157 8.18579
150.399 8.10107
150.641 8.01639
150.884 7.93169
151.126 7.84685
151.369 7.76179
151.611 7.67632
151.854 7.59038
152.096 7.50388
152.339 7.41673
152.593 7.32448
152.847 7.23124
153.101 7.13689
153.355 7.04132
153.609 6.94441
153.863 6.84616
154.117 6.74650
154.371 6.64543
154.602 6.55235
154.833 6.45830
154.948 6.41093
155.064 6.36343
155.179 6.31575
155.295 6.26802
155.410 6.22023
155.526 6.17249
155.641 6.12487
155.757 6.07753
155.872 6.03050
155.987 5.98401
156.103 5.93816
156.218 5.89325
156.345 5.84513
156.472 5.79887
156.599 5.75493
156.726 5.71390
156.854 5.67652
156.981 5.64376
157.108 5.61673
157.235 5.59683
157.362 5.58582
157.425 5.58431
157.489 5.58588
157.552 5.59091
157.616 5.59979
157.679 5.61298
157.743 5.63101
157.806 5.65447
157.870 5.68400
157.933 5.72038
157.997 5.76446
158.060 5.81723
158.124 5.87981
158.187 5.95354
158.251 6.03991
158.314 6.14088
158.378 6.25816
158.441 6.39429
158.505 6.55205
158.568 6.73469
158.632 6.94607
158.695 7.19075
158.759 7.47417
158.808 7.72399
158.857 8.00443
158.906 8.31967
158.955 8.67380
158.980 8.86823
159.004 9.07398
159.029 9.29268
159.053 9.52529
159.078 9.77389
159.102 10.0376
159.127 10.3186
159.151 10.6183
159.169 10.8433
159.186 11.0777
159.203 11.3233
159.220 11.5808
159.238 11.8509
159.255 12.1343
159.272 12.4319
159.290 12.7446
159.304 13.0189
159.319 13.3030
159.333 13.6015
159.347 13.9109
159.362 14.2364
159.376 14.5740
159.391 14.9270
159.405 15.2960
159.417 15.6057
159.428 15.9271
159.440 16.2577
159.451 16.6039
159.463 16.9603
159.475 17.3339
159.486 17.7190
159.498 18.1229
159.509 18.5395
159.522 19.0311
159.535 19.5457
159.548 20.0849
159.561 20.6459
159.574 21.2390
159.587 21.8620
159.600 22.5168
159.613 23.2004
159.621 23.6422
159.629 24.0928
159.637 24.5642
159.645 25.0452
159.653 25.5488
159.661 26.0633
159.669 26.6023
159.677 27.1534
159.684 27.7021
159.692 28.2698
159.699 28.8575
159.707 29.4579
159.714 30.0883
159.722 30.7417
159.730 31.4195
159.737 32.1134
159.745 32.8434
159.752 33.6017
159.760 34.3900
159.767 35.1989
159.775 36.0517
159.783 36.9397
159.790 37.8649
159.798 38.8165
159.806 39.8763
159.814 40.9708
159.822 42.1307
159.830 43.3303
159.838 44.6034
159.845 45.9217
159.853 47.3046
159.861 48.7562
159.869 50.3006
159.877 51.9039
159.885 53.6119
159.893 55.3871
159.901 57.2803
159.909 59.2503
159.917 61.3264
159.925 63.5154
159.933 65.8547
159.941 68.2933
159.949 70.9014
159.957 73.6225
159.965 76.5346
159.972 79.5748
159.980 82.7885
159.988 86.1863
159.996 89.8262
160.004 93.6293
160.012 97.7043
160.020 101.963
160.028 106.526
160.036 111.294
160.044 116.338
160.052 121.673
160.060 127.388
160.068 133.357
160.076 139.749
160.084 146.422
160.092 153.563
160.099 161.014
160.107 168.983
160.115 177.290
160.123 186.167
160.131 195.413
160.139 205.282
160.147 215.551
160.155 226.500
160.163 237.877
160.171 249.839
160.179 262.405
160.187 275.769
160.195 289.617
160.203 304.323
160.211 319.537
160.219 335.667
160.227 352.327
160.234 369.734
160.242 387.903
160.250 407.097
160.258 426.849
160.266 447.409
160.274 468.788
160.282 491.283
160.290 514.338
160.306 562.981
160.316 596.184
160.326 630.452
160.336 666.092
160.346 703.085
160.356 741.406
160.366 781.020
160.387 863.941
160.403 932.420
160.418 1003.41
160.434 1076.56
160.450 1150.99
160.482 1303.60
160.514 1456.92
160.545 1606.39
160.561 1677.80
160.577 1746.06
160.593 1810.47
160.609 1870.00
160.625 1924.75
160.641 1973.44
160.656 2014.15
160.671 2048.75
160.686 2076.87
160.701 2098.11
160.715 2112.17
160.730 2119.57
160.735 2120.56
160.751 2118.52
160.767 2108.65
160.783 2090.97
160.798 2065.91
160.822 2015.58
160.845 1951.16
160.868 1876.96
160.890 1792.74
160.907 1726.00
160.923 1655.68
160.956 1507.80
161.002 1296.27
161.024 1191.20
161.047 1089.07
161.070 990.228
161.092 896.565
161.115 808.408
161.126 766.573
161.138 726.302
161.156 663.508
161.175 605.430
161.184 577.888
161.193 551.447
161.203 526.098
161.212 502.081
161.221 478.859
161.230 456.680
161.240 435.520
161.249 415.569
161.258 396.364
161.267 378.294
161.277 360.935
161.286 344.631
161.297 325.581
161.309 307.903
161.320 291.367
161.331 275.913
161.343 261.361
161.354 247.909
161.365 235.367
161.376 223.680
161.388 212.702
161.399 202.575
161.410 193.147
161.422 184.372
161.433 176.135
161.444 168.537
161.456 161.462
161.467 154.872
161.479 148.156
161.492 141.936
161.504 136.170
161.517 130.862
161.529 125.891
161.541 121.305
161.554 116.999
161.566 113.016
161.578 109.267
161.591 105.789
161.603 102.505
161.615 99.4495
161.628 96.5559
161.640 93.8553
161.652 91.2897
161.665 88.8879
161.687 84.7917
161.710 81.0801
161.733 77.7012
161.755 74.6244
161.778 71.7861
161.801 69.1811
161.823 66.7604
161.846 64.5236
161.869 62.4325
161.891 60.4894
161.914 58.6634
161.937 56.9588
161.959 55.3500
161.982 53.8422
162.005 52.4139
162.027 51.0707
162.050 49.7943
162.073 48.5904
162.095 47.4433
162.118 46.3584
162.163 44.3398
162.208 42.5062
162.254 40.8338
162.299 39.3029
162.344 37.8968
162.390 36.6013
162.427 35.6141
162.464 34.6872
162.501 33.8152
162.538 32.9959
162.575 32.2205
162.612 31.4878
162.649 30.7944
162.686 30.1391
162.723 29.5155
162.760 28.9232
162.798 28.3599
162.835 27.8250
162.909 26.8272
162.983 25.9173
163.028 25.3985
163.073 24.9075
163.119 24.4412
163.164 23.9978
163.209 23.5757
163.255 23.1736
163.345 22.4237
163.436 21.7388
163.526 21.1110
163.617 20.5336
163.708 20.0008
163.765 19.6826
163.823 19.3794
163.881 19.0902
163.938 18.8146
164.054 18.2987
164.169 17.8259
164.284 17.3905
164.400 16.9889
164.515 16.6169
164.630 16.2713
164.721 16.0163
164.812 15.7751
164.902 15.5464
164.993 15.3293
165.083 15.1228
165.174 14.9263
165.265 14.7389
165.355 14.5602
165.446 14.3894
165.536 14.2260
165.718 13.9198
165.899 13.6380
166.080 13.3778
166.278 13.1156
166.475 12.8733
166.673 12.6488
166.871 12.4400
167.068 12.2452
167.266 12.0632
167.464 11.8926
167.662 11.7320
167.843 11.5927
168.024 11.4605
168.205 11.3347
168.386 11.2149
168.568 11.1005
168.749 10.9913
168.930 10.8868
169.111 10.7866
169.293 10.6903
169.474 10.5979
169.836 10.4233
170.199 10.2607
170.561 10.1088
170.808 10.0106
171.055 9.91635
171.302 9.82577
171.550 9.73855
171.797 9.65439
172.044 9.57313
172.538 9.41872
173.032 9.27298
173.527 9.13487
174.021 9.00345
174.515 8.87779
174.910 8.78085
175.306 8.68670
175.701 8.59500
176.097 8.50547
176.492 8.41783
176.887 8.33180
177.283 8.24715
177.678 8.16368
178.370 8.01971
179.062 7.87757
179.408 7.80685
179.754 7.73620
180.100 7.66551
180.446 7.59466
180.792 7.52350
181.138 7.45191
181.484 7.37978
181.830 7.30699
182.176 7.23337
182.522 7.15883
182.868 7.08323
183.214 7.00645
183.576 6.92441
183.938 6.84065
184.301 6.75494
184.663 6.66713
185.026 6.57694
185.388 6.48420
185.751 6.38864
185.932 6.33973
186.113 6.29003
186.410 6.20688
186.706 6.12141
187.003 6.03346
187.299 5.94297
187.448 5.89673
187.596 5.84982
187.744 5.80225
187.892 5.75405
188.041 5.70515
188.189 5.65559
188.337 5.60538
188.485 5.55459
188.667 5.49166
188.848 5.42801
189.029 5.36373
189.210 5.29900
189.392 5.23404
189.573 5.16923
189.754 5.10497
189.935 5.04184
190.100 4.98601
190.265 4.93248
190.347 4.90684
190.430 4.88213
190.512 4.85852
190.594 4.83621
190.677 4.81536
190.759 4.79623
190.841 4.77908
190.924 4.76424
191.006 4.75202
191.088 4.74287
191.171 4.73724
191.253 4.73569
191.344 4.73948
191.434 4.74997
191.525 4.76833
191.616 4.79593
191.706 4.83442
191.797 4.88577
191.887 4.95235
191.978 5.03702
192.069 5.14340
192.114 5.20593
192.159 5.27553
192.205 5.35288
192.250 5.43876
192.295 5.53403
192.341 5.63963
192.386 5.75664
192.431 5.88627
192.476 6.02989
192.522 6.18904
192.567 6.36546
192.612 6.56115
192.658 6.77837
192.703 7.01974
192.736 7.21246
192.769 7.42022
192.802 7.64571
192.835 7.88919
192.868 8.15392
192.901 8.44031
192.934 8.75235
192.950 8.91847
192.967 9.09070
192.988 9.33012
193.010 9.58231
193.032 9.85059
193.053 10.1336
193.075 10.4350
193.096 10.7534
193.118 11.0915
193.140 11.4508
193.152 11.6673
193.164 11.8898
193.177 12.1224
193.189 12.3616
193.200 12.5913
193.212 12.8267
193.223 13.0704
193.234 13.3226
193.246 13.5860
193.257 13.8566
193.268 14.1369
193.280 14.4274
193.291 14.7314
193.302 15.0440
193.314 15.3685
193.325 15.7054
193.336 16.0584
193.348 16.4222
193.359 16.8005
193.370 17.1940
193.382 17.6073
193.393 18.0341
193.404 18.4789
193.416 18.9427
193.427 19.4311
193.438 19.9367
193.450 20.4652
193.461 21.0178
193.472 21.6015
193.484 22.2076
193.495 22.8431
193.506 23.5100
193.518 24.2169
193.529 24.9536
193.540 25.7290
193.551 26.5458
193.563 27.4151
193.574 28.3250
193.585 29.2866
193.597 30.3040
193.608 31.3915
193.619 32.5349
193.631 33.7489
193.642 35.0392
193.653 36.4247
193.665 37.8880
193.676 39.4629
193.687 41.1300
193.699 42.9280
193.710 44.8351
193.721 46.8773
193.733 49.0660
193.743 51.0927
193.752 53.2477
193.762 55.5407
193.772 57.9558
193.782 60.5536
193.791 63.3213
193.801 66.2711
193.811 69.3828
193.821 72.7340
193.831 76.3084
193.840 80.1211
193.850 84.1455
193.860 88.4814
193.870 93.1066
193.879 98.0399
193.889 103.246
193.901 109.801
193.912 116.797
193.923 124.392
193.935 132.489
193.946 141.269
193.957 150.617
193.969 160.646
193.980 171.397
193.991 183.016
194.003 195.342
194.014 208.514
194.025 222.575
194.037 237.704
194.048 253.675
194.059 270.659
194.070 288.694
194.082 307.990
194.093 328.246
194.104 349.656
194.116 372.250
194.127 396.271
194.138 421.316
194.150 447.610
194.161 475.162
194.172 504.239
194.184 534.330
194.195 565.677
194.206 598.267
194.218 632.380
194.229 667.388
194.252 740.808
194.274 818.757
194.297 899.985
194.320 984.495
194.342 1070.68
194.381 1222.05
194.421 1370.18
194.443 1452.28
194.466 1529.50
194.488 1600.91
194.511 1665.22
194.535 1723.75
194.558 1771.80
194.574 1797.15
194.589 1817.49
194.605 1832.64
194.620 1842.42
194.630 1845.99
194.635 1846.88
194.652 1845.53
194.669 1837.66
194.686 1823.39
194.703 1803.04
194.717 1781.06
194.731 1755.18
194.745 1725.48
194.760 1692.21
194.788 1615.98
194.816 1528.81
194.845 1433.21
194.873 1331.76
194.927 1131.03
194.955 1031.21
194.982 934.046
195.010 836.599
195.024 789.954
195.038 744.867
195.053 701.441
195.067 659.759
195.081 619.880
195.095 581.848
195.112 539.269
195.129 499.318
195.146 461.979
195.162 427.407
195.179 395.123
195.196 365.260
195.213 337.719
195.229 312.536
195.244 292.757
195.258 274.402
195.272 257.394
195.286 241.656
195.300 227.112
195.315 213.686
195.329 201.303
195.343 189.891
195.357 179.379
195.371 169.701
195.386 160.793
195.400 152.593
195.414 145.044
195.428 138.093
195.442 131.689
195.457 125.786
195.471 120.340
195.485 115.310
195.499 110.661
195.513 106.357
195.528 102.368
195.542 98.6660
195.556 95.2245
195.570 92.0202
195.584 89.0318
195.599 86.2401
195.613 83.6275
195.627 81.1783
195.641 78.8783
195.655 76.7146
195.670 74.6757
195.684 72.7513
195.708 69.6609
195.733 66.8546
195.757 64.2841
195.782 61.9201
195.807 59.7292
195.831 57.7082
195.856 55.8302
195.880 54.0801
195.905 52.4383
195.929 50.9069
195.954 49.4695
195.978 48.1173
196.003 46.8381
196.027 45.6355
196.052 44.4984
196.076 43.4216
196.105 42.2428
196.133 41.1324
196.161 40.0847
196.190 39.0947
196.218 38.1578
196.247 37.2699
196.275 36.4275
196.303 35.6271
196.360 34.1408
196.417 32.7904
196.474 31.5586
196.531 30.4327
196.567 29.7624
196.603 29.1283
196.639 28.5244
196.675 27.9518
196.747 26.8856
196.820 25.9168
196.892 25.0304
196.964 24.2178
197.037 23.4703
197.109 22.7815
197.166 22.2759
197.222 21.7994
197.279 21.3496
197.336 20.9244
197.393 20.5219
197.450 20.1403
197.506 19.7781
197.563 19.4339
197.620 19.1064
197.677 18.7945
197.734 18.4970
197.790 18.2131
197.904 17.6823
198.017 17.1962
198.131 16.7488
198.245 16.3358
198.358 15.9536
198.472 15.5988
198.585 15.2686
198.699 14.9605
198.813 14.6723
198.926 14.4023
199.061 14.1039
199.195 13.8262
199.329 13.5666
199.463 13.3233
199.597 13.0948
199.732 12.8798
199.866 12.6771
200.000 12.4856
200.131 12.3084
200.262 12.1404
200.393 11.9808
200.524 11.8287
200.655 11.6836
200.786 11.5449
200.917 11.4120
201.048 11.2847
201.179 11.1624
201.310 11.0450
201.572 10.8232
201.834 10.6170
202.096 10.4244
202.257 10.3126
202.417 10.2050
202.737 10.0010
203.057 9.81006
203.377 9.63049
203.698 9.46065
204.018 9.29931
204.338 9.14524
204.658 8.99751
204.950 8.86789
205.241 8.74219
205.532 8.61978
205.823 8.50026
206.143 8.37150
206.464 8.24510
206.784 8.12046
207.104 7.99716
207.424 7.87466
207.745 7.75258
208.065 7.63040
208.385 7.50779
208.633 7.41243
208.880 7.31637
209.128 7.21945
209.375 7.12155
209.622 7.02249
209.746 6.97248
209.870 6.92221
209.994 6.87158
210.117 6.82068
210.241 6.76947
210.365 6.71798
210.525 6.65093
210.685 6.58360
210.845 6.51609
211.005 6.44862
211.166 6.38143
211.246 6.34808
211.326 6.31502
211.406 6.28225
211.486 6.24994
211.566 6.21810
211.646 6.18696
211.755 6.14575
211.864 6.10649
211.973 6.06973
212.083 6.03623
212.192 6.00688
212.246 5.99412
212.301 5.98288
212.356 5.97335
212.410 5.96576
212.465 5.96038
212.519 5.95751
212.599 5.95855
212.679 5.96702
212.760 5.98452
212.800 5.99723
212.840 6.01298
212.880 6.03213
212.920 6.05496
212.960 6.08192
213.000 6.11349
213.040 6.15029
213.080 6.19274
213.120 6.24161
213.160 6.29769
213.218 6.39423
213.276 6.51116
213.305 6.57883
213.335 6.65304
213.364 6.73472
213.393 6.82462
213.422 6.92400
213.451 7.03317
213.480 7.15361
213.509 7.28664
213.538 7.43377
213.567 7.59679
213.597 7.77778
213.626 7.97921
213.666 8.29583
213.686 8.47331
213.706 8.66570
213.726 8.87471
213.746 9.10230
213.766 9.35077
213.786 9.62279
213.806 9.92305
213.826 10.2523
213.846 10.6163
213.866 11.0201
213.886 11.4698
213.906 11.9727
213.926 12.5371
213.936 12.8454
213.946 13.1730
213.961 13.7076
213.976 14.2915
213.991 14.9344
213.998 15.2802
214.006 15.6436
214.013 16.0256
214.021 16.4273
214.028 16.8499
214.036 17.2946
214.043 17.7628
214.051 18.2559
214.058 18.7753
214.066 19.3225
214.074 19.9071
214.081 20.5154
214.089 21.1568
214.096 21.8332
214.104 22.5464
214.111 23.2987
214.119 24.0922
214.126 24.9292
214.134 25.8122
214.141 26.7436
214.149 27.7261
214.156 28.7623
214.164 29.8553
214.171 31.0079
214.179 32.2233
214.186 33.5046
214.196 35.3401
214.206 37.2896
214.216 39.3792
214.226 41.6179
214.236 44.0149
214.246 46.5799
214.256 49.3231
214.266 52.2547
214.273 54.2347
214.279 56.2990
214.285 58.4507
214.292 60.6568
214.298 62.9902
214.304 65.4198
214.311 67.9485
214.317 70.5374
214.326 74.4576
214.335 78.5991
214.344 82.9708
214.354 87.5814
214.363 92.4397
214.372 97.5541
214.381 102.933
214.390 108.521
214.400 115.120
214.410 122.003
214.420 129.246
214.430 136.855
214.440 144.840
214.450 153.207
214.460 161.962
214.470 171.112
214.480 180.757
214.490 190.709
214.500 201.062
214.510 211.817
214.522 225.022
214.534 238.777
214.545 253.073
214.557 267.897
214.577 294.314
214.597 321.959
214.617 350.818
214.637 380.714
214.668 428.595
214.699 477.347
214.739 540.167
214.759 570.845
214.779 600.307
214.799 628.344
214.819 654.475
214.839 678.730
214.859 700.403
214.879 719.319
214.899 735.211
214.923 749.717
214.946 759.450
214.970 764.243
214.978 764.704
215.004 762.207
215.030 753.715
215.043 746.900
215.057 738.535
215.084 717.494
215.112 690.394
215.139 658.597
215.167 623.013
215.195 584.442
215.235 524.679
215.275 463.469
215.303 421.682
215.331 381.030
215.358 342.100
215.372 323.365
215.386 305.358
215.400 287.858
215.414 271.147
215.427 255.122
215.441 239.801
215.455 225.092
215.469 211.211
215.483 198.050
215.497 185.605
215.509 174.859
215.522 164.691
215.534 155.089
215.547 146.039
215.560 137.523
215.572 129.525
215.585 122.025
215.597 115.056
215.610 108.487
215.622 102.354
215.635 96.6358
215.648 91.3507
215.660 86.3932
215.673 81.7858
215.685 77.5076
215.698 73.5684
215.712 69.5214
215.726 65.8261
215.739 62.4048
215.753 59.2835
215.767 56.3950
215.781 53.7603
215.795 51.3386
215.809 49.1118
215.822 47.0491
215.836 45.1645
215.850 43.4162
215.864 41.8159
215.878 40.3281
215.892 38.9630
215.905 37.6994
215.919 36.5278
215.939 34.9616
215.960 33.5578
215.980 32.2882
216.000 31.1355
216.020 30.0796
216.040 29.1183
216.060 28.2350
216.080 27.4204
216.100 26.6627
216.121 25.9626
216.141 25.3101
216.161 24.7003
216.181 24.1259
216.201 23.5889
216.221 23.0830
216.241 22.6053
216.269 21.9888
216.297 21.4156
216.324 20.8811
216.352 20.3812
216.380 19.9124
216.407 19.4718
216.435 19.0569
216.463 18.6668
216.490 18.2966
216.518 17.9460
216.546 17.6136
216.573 17.2990
216.629 16.7126
216.684 16.1805
216.722 15.8436
216.760 15.5272
216.797 15.2278
216.835 14.9455
216.873 14.6776
216.911 14.4241
216.948 14.1833
216.986 13.9543
217.062 13.5275
217.137 13.1384
217.213 12.7818
217.288 12.4541
217.343 12.2294
217.399 12.0173
217.454 11.8160
217.509 11.6253
217.565 11.4436
217.620 11.2709
217.675 11.1059
217.731 10.9485
217.841 10.6533
217.952 10.3817
218.063 10.1303
218.174 9.89655
218.249 9.74612
218.325 9.60224
218.400 9.46438
218.476 9.33204
218.627 9.08214
218.777 8.84955
218.928 8.63140
219.079 8.42594
219.230 8.23119
219.381 8.04601
219.492 7.91534
219.603 7.78882
219.713 7.66596
219.824 7.54646
219.935 7.43003
220.046 7.31646
220.156 7.20554
220.267 7.09712
220.378 6.99107
220.488 6.88732
220.599 6.78579
220.710 6.68649
220.820 6.58945
220.931 6.49472
221.042 6.40244
221.153 6.31278
221.273 6.21824
221.394 6.12758
221.515 6.04139
221.636 5.96048
221.756 5.88566
221.877 5.81824
221.998 5.75960
222.119 5.71171
222.229 5.67922
222.340 5.66007
222.451 5.65711
222.506 5.66280
222.562 5.67394
222.617 5.69117
222.672 5.71510
222.728 5.74657
222.783 5.78633
222.838 5.83550
222.894 5.89498
222.949 5.96627
223.004 6.05053
223.075 6.17956
223.145 6.33631
223.216 6.52602
223.286 6.75393
223.357 7.02772
223.392 7.18410
223.427 7.35521
223.462 7.54299
223.498 7.74793
223.533 7.97228
223.568 8.21795
223.596 8.42770
223.623 8.65318
223.651 8.89569
223.679 9.15568
223.706 9.43662
223.734 9.73935
223.762 10.0658
223.776 10.2380
223.789 10.4169
223.806 10.6386
223.822 10.8708
223.839 11.1141
223.855 11.3674
223.871 11.6347
223.888 11.9132
223.904 12.2073
223.920 12.5142
223.930 12.7101
223.944 12.9924
223.958 13.2848
223.972 13.5921
223.986 13.9108
224.000 14.2462
224.013 14.5943
224.027 14.9582
224.041 15.3390
224.055 15.7407
224.069 16.1585
224.083 16.5998
224.096 17.0595
224.110 17.5457
224.124 18.0530
224.138 18.5905
224.152 19.1522
224.166 19.7484
224.179 20.3727
224.193 21.0366
224.207 21.7333
224.221 22.4758
224.235 23.2568
224.249 24.0850
224.262 24.9643
224.276 25.9062
224.290 26.9018
224.304 27.9632
224.318 29.0962
224.332 30.3164
224.345 31.6135
224.359 33.0040
224.373 34.4966
224.380 35.2959
224.387 36.1133
224.394 36.9614
224.401 37.8415
224.408 38.7688
224.415 39.7184
224.422 40.7049
224.428 41.7300
224.435 42.8114
224.442 43.9201
224.449 45.0734
224.456 46.2732
224.463 47.5403
224.470 48.8408
224.477 50.1950
224.484 51.6052
224.491 53.0960
224.498 54.6274
224.505 56.2234
224.512 57.8868
224.518 59.6208
224.525 61.4288
224.532 63.3140
224.539 65.2800
224.546 67.3610
224.553 69.5012
224.560 71.7338
224.567 74.0629
224.574 76.4928
224.581 79.0279
224.588 81.6728
224.594 84.4323
224.601 87.3538
224.608 90.3591
224.615 93.4942
224.622 96.7644
224.629 100.226
224.636 103.786
224.643 107.498
224.650 111.368
224.657 115.463
224.664 119.671
224.671 124.057
224.678 128.627
224.684 133.387
224.691 138.346
224.705 148.883
224.719 160.383
224.733 172.739
224.747 186.191
224.761 200.606
224.774 216.256
224.788 232.977
224.802 250.937
224.816 270.196
224.830 290.965
224.844 312.998
224.857 336.667
224.871 361.675
224.885 388.427
224.899 416.570
224.913 446.318
224.927 477.688
224.940 510.932
224.954 545.571
224.968 582.093
224.982 619.946
224.996 659.640
225.010 700.550
225.023 742.891
225.037 786.582
225.064 873.898
225.090 964.632
225.117 1058.08
225.143 1153.00
225.198 1350.33
225.226 1444.78
225.254 1533.39
225.281 1614.89
225.309 1687.06
225.338 1751.36
225.353 1778.42
225.368 1801.59
225.383 1822.21
225.399 1838.14
225.414 1849.39
225.430 1855.90
225.436 1857.10
225.455 1856.44
225.473 1848.92
225.492 1834.64
225.511 1813.95
225.537 1773.27
225.564 1720.95
225.590 1660.67
225.615 1592.27
225.634 1537.86
225.653 1480.64
225.690 1358.95
225.741 1183.59
225.792 1009.23
225.818 924.855
225.844 844.124
225.869 767.406
225.895 695.234
225.918 633.811
225.930 604.560
225.942 576.627
225.953 549.537
225.965 523.754
225.977 498.829
225.988 475.180
226.000 452.387
226.011 430.823
226.023 410.097
226.035 390.541
226.046 371.793
226.058 354.145
226.070 337.266
226.081 321.413
226.094 304.777
226.107 289.262
226.120 274.690
226.133 261.018
226.145 248.201
226.158 236.195
226.171 224.956
226.184 214.441
226.197 204.535
226.210 195.349
226.222 186.764
226.235 178.744
226.248 171.250
226.261 164.249
226.274 157.708
226.286 151.594
226.302 144.848
226.317 138.656
226.332 132.893
226.347 127.593
226.362 122.651
226.377 118.098
226.392 113.841
226.408 109.908
226.423 106.221
226.438 102.805
226.453 99.5920
226.468 96.6057
226.483 93.7883
226.498 91.1608
226.514 88.6894
226.529 86.3612
226.554 82.6947
226.580 79.3702
226.606 76.3191
226.631 73.5290
226.657 70.9479
226.683 68.5700
226.708 66.3633
226.734 64.3092
226.759 62.3846
226.785 60.5907
226.811 58.9080
226.836 57.3263
226.862 55.8308
226.888 54.4253
226.913 53.0968
226.939 51.8391
226.964 50.6421
226.990 49.5103
227.041 47.4103
227.093 45.5001
227.144 43.7620
227.195 42.1681
227.246 40.7070
227.298 39.3582
227.349 38.1140
227.393 37.1114
227.437 36.1708
227.482 35.2867
227.526 34.4561
227.570 33.6710
227.614 32.9295
227.659 32.2281
227.703 31.5651
227.747 30.9349
227.792 30.3364
227.836 29.7673
227.880 29.2268
227.924 28.7106
227.969 28.2192
228.057 27.3004
228.108 26.8042
228.160 26.3322
228.211 25.8828
228.262 25.4552
228.365 24.6567
228.467 23.9269
228.570 23.2573
228.672 22.6410
228.775 22.0719
228.877 21.5449
228.947 21.2074
229.017 20.8862
229.087 20.5801
229.157 20.2882
229.227 20.0094
229.297 19.7430
229.436 19.2439
229.576 18.7852
229.716 18.3621
229.856 17.9706
229.995 17.6076
230.098 17.3572
230.201 17.1197
230.303 16.8938
230.406 16.6787
230.508 16.4735
230.611 16.2779
230.713 16.0910
230.816 15.9122
231.021 15.5769
231.226 15.2685
231.431 14.9838
231.636 14.7200
231.757 14.5730
231.878 14.4322
232.120 14.1672
232.363 13.9224
232.605 13.6955
232.847 13.4847
233.090 13.2883
233.332 13.1044
233.574 12.9318
233.779 12.7938
233.984 12.6626
234.189 12.5378
234.394 12.4188
234.599 12.3051
234.804 12.1966
235.009 12.0927
235.214 11.9931
235.420 11.8975
235.625 11.8058
236.035 11.6327
236.445 11.4721
236.855 11.3224
237.116 11.2323
237.377 11.1460
237.638 11.0630
237.898 10.9832
238.420 10.8324
238.942 10.6921
239.464 10.5615
239.986 10.4386
240.508 10.3228
241.030 10.2135
241.440 10.1318
241.850 10.0534
242.260 9.97797
242.670 9.90543
243.080 9.83546
243.490 9.76793
244.310 9.63942
245.130 9.51869
245.950 9.40472
246.771 9.29667
247.591 9.19379
248.224 9.11744
248.858 9.04356
249.492 8.97191
250.126 8.90230
251.393 8.76879
252.660 8.64092
253.928 8.51804
255.195 8.39926
256.463 8.28375
257.730 8.17079
258.923 8.06623
260.116 7.96288
261.756 7.82189
262.576 7.75159
263.396 7.68123
265.037 7.53982
265.857 7.46851
266.677 7.39660
267.497 7.32403
268.317 7.25061
269.137 7.17614
269.957 7.10063
270.777 7.02387
271.598 6.94555
272.418 6.86572
273.238 6.78420
274.207 6.68518
275.176 6.58308
276.146 6.47801
277.115 6.36879
278.084 6.25533
279.053 6.13717
280.022 6.01377
280.507 5.94992
280.992 5.88454
281.812 5.77015
282.632 5.65067
283.452 5.52560
283.862 5.46079
284.272 5.39439
284.682 5.32630
285.092 5.25645
285.502 5.18473
285.912 5.11109
286.322 5.03539
286.732 4.95757
287.142 4.87751
287.552 4.79525
287.963 4.71050
288.373 4.62307
288.783 4.53292
289.193 4.43997
289.603 4.34407
290.013 4.24515
290.423 4.14304
290.833 4.03771
291.243 3.92902
291.653 3.81699
292.063 3.70157
292.268 3.64262
292.473 3.58287
292.678 3.52230
292.883 3.46101
293.088 3.39902
293.293 3.33637
293.498 3.27310
293.703 3.20938
293.908 3.14527
294.113 3.08091
294.337 3.01059
294.561 2.94044
294.784 2.87079
295.008 2.80212
295.232 2.73487
295.455 2.66978
295.679 2.60761
295.903 2.54944
296.108 2.50069
296.313 2.45766
296.518 2.42187
296.620 2.40730
296.723 2.39532
296.825 2.38623
296.928 2.38042
297.030 2.37828
297.133 2.38027
297.235 2.38691
297.338 2.39878
297.440 2.41656
297.543 2.44102
297.622 2.46508
297.701 2.49409
297.781 2.52859
297.860 2.56914
297.939 2.61637
298.018 2.67099
298.097 2.73378
298.137 2.76851
298.177 2.80563
298.226 2.85504
298.275 2.90845
298.324 2.96634
298.372 3.02877
298.421 3.09633
298.470 3.16909
298.519 3.24756
298.568 3.33215
298.598 3.38782
298.629 3.44613
298.659 3.50718
298.689 3.57110
298.717 3.63261
298.755 3.71902
298.787 3.79863
298.820 3.88226
298.852 3.97013
298.885 4.06244
298.932 4.20257
298.978 4.35298
299.025 4.51445
299.048 4.59961
299.071 4.68786
299.095 4.77933
299.118 4.87414
299.141 4.97243
299.165 5.07434
299.188 5.18001
299.211 5.28958
299.234 5.40324
299.258 5.52113
299.293 5.70658
299.328 5.90206
299.363 6.10938
299.398 6.32808
299.433 6.56022
299.450 6.68137
299.467 6.80533
299.485 6.93365
299.502 7.06574
299.520 7.20175
299.537 7.34099
299.563 7.55425
299.589 7.77611
299.614 8.00882
299.640 8.25107
299.666 8.50533
299.691 8.77022
299.717 9.04733
299.742 9.33735
299.770 9.67021
299.798 10.0191
299.826 10.3877
299.854 10.7744
299.882 11.1834
299.910 11.6131
299.938 12.0682
299.966 12.5469
299.992 13.0117
300.017 13.4989
300.043 14.0121
300.069 14.5528
300.094 15.1252
300.120 15.7271
300.145 16.3627
300.171 17.0346
300.197 17.7484
300.222 18.5013
300.248 19.2995
300.274 20.1464
300.299 21.0497
300.325 22.0068
300.350 23.0261
300.376 24.1129
300.402 25.2782
300.427 26.5199
300.453 27.8554
300.479 29.2832
300.504 30.8246
300.530 32.4791
300.556 34.2654
300.581 36.1985
300.607 38.3041
300.632 40.5857
300.658 43.0740
300.684 45.7954
300.697 47.2645
300.709 48.7925
300.722 50.3953
300.735 52.0777
300.748 53.8449
300.761 55.7028
300.773 57.6574
300.786 59.7152
300.799 61.9009
300.812 64.1881
300.825 66.6014
300.837 69.1497
300.850 71.8422
300.863 74.6890
300.876 77.7009
300.889 80.8892
300.902 84.2935
300.914 87.8739
300.927 91.6701
300.940 95.6969
300.953 99.9699
300.966 104.506
300.978 109.322
300.991 114.437
301.004 119.915
301.017 125.692
301.030 131.829
301.042 138.351
301.055 145.280
301.068 152.643
301.081 160.464
301.094 168.771
301.107 177.662
301.119 187.030
301.132 196.970
301.145 207.512
301.158 218.689
301.171 230.532
301.183 243.074
301.196 256.346
301.209 270.496
301.222 285.335
301.235 301.005
301.247 317.537
301.260 334.964
301.273 353.316
301.286 372.625
301.299 392.918
301.312 414.394
301.324 436.746
301.337 460.159
301.350 484.654
301.363 510.250
301.376 536.963
301.388 564.802
301.401 593.778
301.418 632.568
301.434 672.972
301.450 715.207
301.466 759.244
301.483 805.040
301.499 852.537
301.532 952.320
301.557 1035.05
301.583 1120.47
301.634 1297.79
301.685 1478.90
301.737 1655.64
301.762 1740.25
301.788 1820.35
301.814 1895.23
301.839 1963.83
301.865 2025.41
301.891 2078.77
301.916 2123.11
301.942 2157.77
301.971 2184.65
302.000 2197.92
302.008 2199.20
302.035 2195.50
302.062 2179.99
302.089 2152.99
302.116 2115.02
302.137 2079.48
302.157 2038.67
302.177 1992.81
302.198 1942.37
302.237 1832.90
302.277 1711.94
302.334 1522.28
302.392 1327.58
302.431 1195.77
302.471 1068.88
302.490 1007.81
302.510 949.024
302.530 892.385
302.549 838.030
302.569 785.809
302.589 736.325
302.609 689.121
302.628 644.695
302.648 602.590
302.668 563.203
302.688 526.270
302.707 491.728
302.724 465.063
302.740 440.065
302.756 416.375
302.772 394.228
302.788 373.292
302.804 353.767
302.820 335.349
302.837 318.206
302.853 302.062
302.869 287.057
302.885 272.945
302.901 259.843
302.917 247.530
302.933 236.104
302.950 225.435
302.966 215.472
302.985 204.118
303.005 193.727
303.025 184.115
303.045 175.307
303.064 167.146
303.084 159.654
303.104 152.731
303.124 146.325
303.143 140.360
303.163 134.853
303.183 129.709
303.203 124.945
303.222 120.480
303.242 116.330
303.262 112.446
303.281 108.804
303.303 105.065
303.325 101.583
303.346 98.3032
303.368 95.2373
303.389 92.3390
303.411 89.6195
303.432 87.0513
303.454 84.6219
303.497 80.1268
303.540 76.0704
303.583 72.3911
303.626 69.0456
303.666 66.2233
303.705 63.6132
303.745 61.1924
303.784 58.9468
303.823 56.8480
303.863 54.8872
303.902 53.0513
303.942 51.3333
303.981 49.7146
304.021 48.1907
304.060 46.7537
304.100 45.4000
304.139 44.1164
304.179 42.9008
304.218 41.7481
304.258 40.6564
304.337 38.6257
304.416 36.7850
304.495 35.1054
304.573 33.5710
304.652 32.1608
304.731 30.8638
304.810 29.6657
304.889 28.5559
304.961 27.6148
305.033 26.7330
305.105 25.9050
305.176 25.1272
305.248 24.3931
305.320 23.7000
305.392 23.0447
305.463 22.4248
305.535 21.8361
305.607 21.2769
305.679 20.7451
305.750 20.2393
305.894 19.2954
306.038 18.4337
306.196 17.5667
306.353 16.7746
306.511 16.0470
306.669 15.3756
306.827 14.7535
306.985 14.1748
307.143 13.6346
307.301 13.1285
307.516 12.4869
307.731 11.8938
307.947 11.3422
308.162 10.8264
308.377 10.3418
308.593 9.88454
308.808 9.45147
309.023 9.03973
309.167 8.77575
309.310 8.51974
309.454 8.27080
309.597 8.02878
309.741 7.79294
309.885 7.56325
310.028 7.33908
310.172 7.12052
310.315 6.90706
310.459 6.69889
310.602 6.49566
310.746 6.29763
310.889 6.10464
311.033 5.91711
311.176 5.73522
311.320 5.55938
311.478 5.37342
311.636 5.19644
311.794 5.02947
311.952 4.87395
312.110 4.73172
312.267 4.60508
312.425 4.49692
312.583 4.41083
312.687 4.36829
312.791 4.33883
312.896 4.32427
313.000 4.32673
313.052 4.33511
313.104 4.34870
313.156 4.36794
313.208 4.39314
313.260 4.42488
313.312 4.46350
313.364 4.50959
313.416 4.56373
313.455 4.61062
313.495 4.66280
313.534 4.72059
313.574 4.78417
313.613 4.85421
313.653 4.93094
313.692 5.01479
313.732 5.10595
313.762 5.18197
313.793 5.26302
313.823 5.34934
313.854 5.44119
313.884 5.53884
313.915 5.64260
313.945 5.75276
313.976 5.86967
313.990 5.92690
314.015 6.03166
314.040 6.14114
314.065 6.25597
314.090 6.37639
314.116 6.50315
314.141 6.63551
314.166 6.77423
314.191 6.91960
314.211 7.03916
314.230 7.16257
314.250 7.29123
314.270 7.42402
314.290 7.56246
314.309 7.70533
314.329 7.85351
314.349 8.00719
314.369 8.16741
314.388 8.33277
314.408 8.50517
314.428 8.68312
314.448 8.86865
314.467 9.06018
314.487 9.25887
314.507 9.46503
314.521 9.62061
314.536 9.78046
314.564 10.1123
314.593 10.4626
314.622 10.8325
314.650 11.2233
314.679 11.6361
314.708 12.0725
314.736 12.5340
314.756 12.8678
314.776 13.2131
314.796 13.5739
314.815 13.9473
314.835 14.3378
314.855 14.7420
314.875 15.1627
314.894 15.6006
314.914 16.0590
314.934 16.5341
314.954 17.0316
314.973 17.5476
314.993 18.0883
315.013 18.6494
315.033 19.2349
315.052 19.8458
315.072 20.4870
315.092 21.1535
315.112 21.8535
315.131 22.5816
315.151 23.3471
315.171 24.1441
315.190 24.9785
315.210 25.8525
315.230 26.7733
315.250 27.7340
315.269 28.7473
315.289 29.8059
315.309 30.9239
315.329 32.0936
315.348 33.3241
315.368 34.6198
315.388 35.9922
315.408 37.4326
315.427 38.9608
315.447 40.5676
315.467 42.2757
315.487 44.0752
315.506 45.9821
315.526 48.0053
315.546 50.1654
315.565 52.4512
315.585 54.8977
315.605 57.4930
315.625 60.2780
315.644 63.2403
315.664 66.4109
315.684 69.8092
315.704 73.4757
315.723 77.3972
315.743 81.6400
315.763 86.1904
315.783 91.1269
315.802 96.4350
315.822 102.178
315.842 108.398
315.862 115.177
315.881 122.500
315.901 130.496
315.921 139.147
315.941 148.607
315.960 158.853
315.980 170.007
316.000 182.154
316.019 195.450
316.039 209.857
316.059 225.622
316.079 242.691
316.098 261.349
316.118 281.521
316.138 303.417
316.158 327.156
316.177 352.997
316.197 380.802
316.217 410.818
316.236 443.166
316.256 478.141
316.276 515.501
316.296 555.516
316.315 598.274
316.335 644.090
316.355 692.560
316.375 744.219
316.394 798.564
316.414 856.143
316.434 916.343
316.454 979.716
316.473 1045.53
316.493 1114.33
316.513 1185.25
316.552 1333.71
316.592 1489.65
316.631 1649.71
316.678 1840.98
316.724 2027.86
316.764 2178.31
316.803 2316.79
316.832 2406.57
316.860 2486.99
316.888 2556.80
316.916 2614.68
316.937 2649.76
316.958 2677.51
316.979 2697.68
317.000 2710.10
317.011 2713.37
317.045 2710.42
317.079 2686.97
317.113 2643.79
317.147 2582.10
317.181 2505.10
317.214 2414.05
317.247 2310.57
317.281 2197.62
317.315 2073.23
317.350 1943.98
317.419 1679.72
317.453 1548.78
317.487 1421.79
317.522 1299.52
317.556 1183.89
317.580 1108.97
317.603 1037.58
317.627 969.870
317.650 905.913
317.674 845.741
317.697 789.336
317.721 736.642
317.744 687.771
317.762 653.880
317.779 622.014
317.796 591.911
317.813 563.508
317.830 536.586
317.848 511.387
317.865 487.681
317.882 465.394
317.899 444.339
317.917 424.685
317.934 406.238
317.951 388.928
317.968 372.688
317.985 357.453
318.003 343.162
318.020 329.752
318.037 317.097
318.054 305.288
318.071 294.197
318.089 283.775
318.106 273.922
318.123 264.707
318.140 256.031
318.158 247.857
318.175 240.104
318.192 232.831
318.209 225.959
318.226 219.461
318.244 213.275
318.261 207.449
318.295 196.676
318.328 187.350
318.361 178.856
318.394 171.094
318.427 163.995
318.460 157.441
318.493 151.391
318.526 145.789
318.558 140.603
318.591 135.760
318.624 131.240
318.657 127.012
318.690 123.061
318.723 119.338
318.756 115.835
318.789 112.534
318.821 109.427
318.856 106.340
318.890 103.433
318.925 100.676
318.959 98.0718
318.994 95.5947
319.028 93.2492
319.097 88.8901
319.166 84.9327
319.235 81.3255
319.304 78.0253
319.372 75.0000
319.423 72.9490
319.473 71.0143
319.523 69.1867
319.573 67.4577
319.623 65.8199
319.673 64.2663
319.723 62.7910
319.773 61.3883
319.823 60.0530
319.873 58.7807
319.974 56.4082
320.074 54.2413
320.174 52.2550
320.243 50.9830
320.312 49.7805
320.381 48.6421
320.450 47.5631
320.519 46.5390
320.587 45.5659
320.656 44.6401
320.725 43.7598
320.794 42.9192
320.863 42.1171
321.001 40.6192
321.138 39.2463
321.276 37.9855
321.414 36.8223
321.552 35.7468
321.690 34.7496
321.827 33.8234
321.965 32.9597
322.103 32.1539
322.241 31.3994
322.378 30.6923
322.516 30.0274
322.654 29.4014
322.792 28.8108
322.929 28.2532
323.067 27.7252
323.205 27.2249
323.343 26.7503
323.480 26.2997
323.618 25.8709
323.756 25.4626
323.894 25.0733
324.032 24.7020
324.169 24.3470
324.307 24.0078
324.583 23.3715
324.858 22.7860
325.134 22.2458
325.409 21.7457
325.685 21.2813
325.960 20.8486
326.236 20.4449
326.511 20.0671
326.787 19.7128
327.012 19.4388
327.238 19.1783
327.463 18.9301
327.689 18.6936
327.914 18.4675
328.139 18.2511
328.365 18.0437
328.590 17.8450
329.041 17.4712
329.492 17.1261
329.943 16.8064
330.394 16.5093
330.669 16.3377
330.945 16.1733
331.496 15.8638
332.047 15.5776
332.598 15.3121
333.149 15.0650
333.700 14.8343
334.251 14.6184
334.802 14.4158
335.203 14.2761
335.604 14.1423
336.005 14.0140
336.405 13.8910
336.806 13.7728
337.207 13.6595
338.009 13.4451
338.810 13.2451
339.612 13.0586
340.413 12.8840
341.215 12.7202
341.766 12.6132
342.317 12.5105
342.868 12.4117
343.419 12.3166
344.521 12.1365
345.623 11.9687
346.726 11.8116
347.828 11.6640
348.930 11.5248
350.032 11.3933
350.884 11.2963
351.735 11.2030
352.587 11.1132
353.439 11.0264
354.290 10.9430
355.142 10.8621
355.994 10.7833
356.845 10.7069
358.548 10.5602
360.252 10.4206
361.955 10.2872
363.658 10.1589
365.662 10.0134
366.664 9.94232
367.666 9.87239
368.668 9.80315
369.670 9.73475
371.674 9.59942
373.477 9.47874
375.281 9.35829
377.084 9.23727
377.986 9.17636
378.888 9.11489
379.790 9.05300
380.691 8.99030
381.593 8.92691
382.495 8.86257
383.397 8.79737
384.298 8.73081
385.200 8.66289
386.102 8.59347
387.204 8.50629
388.306 8.41625
389.408 8.32292
390.510 8.22589
391.613 8.12467
392.715 8.01868
393.266 7.96371
393.817 7.90731
394.368 7.84938
394.919 7.78984
395.771 7.69434
396.622 7.59427
397.474 7.48914
398.326 7.37840
398.752 7.32072
399.177 7.26143
399.603 7.20052
400.029 7.13787
400.455 7.07313
400.881 7.00632
401.306 6.93733
401.732 6.86606
402.283 6.77021
402.834 6.66998
403.386 6.56503
403.937 6.45500
404.488 6.33943
405.039 6.21792
405.590 6.08993
405.865 6.02335
406.141 5.95495
406.617 5.83226
407.093 5.70353
407.331 5.63675
407.569 5.56831
407.807 5.49810
408.044 5.42613
408.282 5.35228
408.520 5.27651
408.758 5.19879
408.996 5.11909
409.234 5.03731
409.472 4.95344
409.710 4.86732
409.948 4.77895
410.224 4.67369
410.499 4.56534
410.775 4.45386
411.050 4.33923
411.326 4.22148
411.601 4.10079
411.877 3.97727
412.152 3.85121
412.428 3.72295
412.566 3.65818
412.703 3.59315
412.841 3.52787
412.979 3.46251
413.117 3.39722
413.255 3.33223
413.392 3.26763
413.530 3.20372
413.668 3.14077
413.806 3.07915
413.943 3.01913
414.081 2.96126
414.219 2.90594
414.357 2.85387
414.507 2.80154
414.657 2.75500
414.808 2.71560
414.958 2.68493
415.108 2.66491
415.258 2.65785
415.409 2.66656
415.484 2.67786
415.559 2.69445
415.634 2.71690
415.709 2.74578
415.784 2.78185
415.860 2.82577
415.935 2.87851
416.010 2.94088
416.047 2.97607
416.085 3.01411
416.123 3.05514
416.160 3.09920
416.202 3.15289
416.245 3.21105
416.287 3.27396
416.329 3.34176
416.372 3.41510
416.414 3.49415
416.456 3.57930
416.498 3.67072
416.548 3.78797
416.589 3.89109
416.630 4.00155
416.670 4.11986
416.711 4.24652
416.746 4.36084
416.780 4.48157
416.815 4.60979
416.849 4.74517
416.883 4.88894
416.918 5.04074
416.952 5.20194
416.987 5.37216
417.021 5.55296
417.056 5.74392
417.090 5.94680
417.125 6.16115
417.159 6.38898
417.193 6.62979
417.228 6.88512
417.262 7.15593
417.280 7.29829
417.297 7.44410
417.331 7.74910
417.366 8.07391
417.400 8.41797
417.435 8.78472
417.469 9.17359
417.503 9.58855
417.538 10.0290
417.572 10.4997
417.607 10.9999
417.641 11.5350
417.676 12.1047
417.710 12.7152
417.745 13.3662
417.779 14.0629
417.813 14.8094
417.848 15.6125
417.882 16.4725
417.917 17.3998
417.951 18.3954
417.986 19.4720
418.020 20.6312
418.055 21.8889
418.089 23.2477
418.123 24.7274
418.141 25.5130
418.158 26.3327
418.175 27.1887
418.192 28.0831
418.209 29.0181
418.227 29.9962
418.244 31.0261
418.261 32.0989
418.278 33.2235
418.296 34.4031
418.313 35.6414
418.330 36.9423
418.347 38.3101
418.364 39.7492
418.382 41.2738
418.399 42.8714
418.416 44.5566
418.433 46.3356
418.451 48.2264
418.468 50.2146
418.485 52.3188
418.502 54.5475
418.519 56.9242
418.537 59.4316
418.554 62.0939
418.571 64.9227
418.588 67.9489
418.606 71.1511
418.623 74.5608
418.640 78.1939
418.657 82.0904
418.674 86.2236
418.692 90.6345
418.709 95.3438
418.726 100.404
418.743 105.780
418.761 111.524
418.778 117.664
418.795 124.266
418.812 131.284
418.829 138.785
418.847 146.801
418.864 155.367
418.881 164.517
418.898 174.288
418.915 184.717
418.932 195.377
418.948 206.643
418.965 218.688
418.981 231.402
418.998 244.977
419.014 259.284
419.031 274.535
419.047 290.581
419.064 307.655
419.080 325.583
419.096 344.619
419.113 364.564
419.129 385.693
419.146 407.778
419.162 430.969
419.179 455.290
419.196 482.192
419.213 510.224
419.230 539.553
419.247 570.185
419.265 602.124
419.282 635.363
419.299 669.892
419.316 705.692
419.351 781.211
419.385 861.163
419.420 945.549
419.454 1033.27
419.523 1216.49
419.592 1402.99
419.626 1494.63
419.661 1583.07
419.695 1667.22
419.730 1745.69
419.765 1818.73
419.800 1882.92
419.835 1937.28
419.870 1980.78
419.910 2016.06
419.930 2027.73
419.950 2035.32
419.962 2037.83
419.999 2036.58
420.036 2021.21
420.073 1992.17
420.110 1950.34
420.138 1911.34
420.166 1866.46
420.193 1815.92
420.221 1760.74
420.248 1703.16
420.274 1642.27
420.328 1513.09
420.406 1316.09
420.445 1217.39
420.484 1120.59
420.511 1055.59
420.538 992.676
420.565 931.890
420.591 873.473
420.618 817.614
420.645 764.452
420.672 714.081
420.699 666.556
420.725 621.728
420.752 579.914
420.779 540.892
420.806 504.591
420.833 470.918
420.859 439.762
420.886 411.003
420.913 384.511
420.935 364.363
420.957 345.656
420.979 328.144
421.001 311.910
421.023 296.731
421.045 282.673
421.067 269.594
421.089 257.426
421.111 246.056
421.132 235.524
421.154 225.677
421.176 216.548
421.198 208.002
421.220 200.069
421.242 192.663
421.264 185.744
421.291 177.853
421.318 170.598
421.345 163.889
421.371 157.675
421.398 151.907
421.425 146.543
421.452 141.545
421.479 136.879
421.505 132.499
421.532 128.409
421.559 124.569
421.586 120.956
421.613 117.553
421.639 114.340
421.666 111.303
421.693 108.427
421.722 105.453
421.752 102.652
421.781 99.9909
421.810 97.4771
421.839 95.0826
421.869 92.8141
421.927 88.5906
421.986 84.7475
422.044 81.2361
422.103 78.0158
422.161 75.0523
422.215 72.5333
422.268 70.1911
422.322 68.0043
422.376 65.9583
422.429 64.0368
422.483 62.2355
422.536 60.5409
422.590 58.9439
422.644 57.4340
422.697 56.0095
422.751 54.6613
422.805 53.3835
422.858 52.1710
422.912 51.0191
422.965 49.9235
423.019 48.8802
423.126 46.9355
423.233 45.1635
423.341 43.5402
423.448 42.0508
423.555 40.6776
423.662 39.4101
423.770 38.2361
423.877 37.1458
423.965 36.3093
424.052 35.5202
424.140 34.7730
424.228 34.0662
424.316 33.3950
424.403 32.7583
424.491 32.1523
424.579 31.5760
424.667 31.0263
424.754 30.5025
424.930 29.5238
425.105 28.6282
425.281 27.8064
425.388 27.3362
425.495 26.8889
425.603 26.4622
425.710 26.0555
425.817 25.6667
425.924 25.2954
426.139 24.5997
426.353 23.9605
426.568 23.3714
426.782 22.8269
426.997 22.3222
427.231 21.8121
427.465 21.3398
427.699 20.9013
427.933 20.4934
428.167 20.1128
428.401 19.7572
428.635 19.4240
428.869 19.1113
429.083 18.8407
429.298 18.5843
429.512 18.3411
429.727 18.1102
429.941 17.8907
430.156 17.6817
430.370 17.4826
430.585 17.2927
430.799 17.1112
431.014 16.9378
431.228 16.7718
431.443 16.6128
431.872 16.3142
432.300 16.0388
432.729 15.7839
433.158 15.5474
433.587 15.3273
434.016 15.1221
434.445 14.9301
434.874 14.7501
435.303 14.5811
435.732 14.4221
436.083 14.2987
436.434 14.1811
436.785 14.0688
437.136 13.9616
437.487 13.8589
437.838 13.7602
438.189 13.6656
438.540 13.5747
439.242 13.4034
439.944 13.2447
440.646 13.0972
441.348 12.9597
441.777 12.8802
442.206 12.8038
442.635 12.7304
443.064 12.6598
443.922 12.5262
444.780 12.4020
445.638 12.2861
446.496 12.1777
447.354 12.0760
448.211 11.9804
448.796 11.9184
449.381 11.8588
449.966 11.8015
450.551 11.7463
451.721 11.6417
452.891 11.5446
454.061 11.4534
455.231 11.3679
456.401 11.2875
457.571 11.2117
458.429 11.1588
459.287 11.1080
460.145 11.0591
461.003 11.0121
461.861 10.9668
462.718 10.9231
464.434 10.8401
466.150 10.7625
467.866 10.6896
469.582 10.6210
471.298 10.5562
472.468 10.5140
473.638 10.4732
475.978 10.3959
478.318 10.3234
480.657 10.2555
482.997 10.1910
485.337 10.1299
487.677 10.0719
490.017 10.0165
492.513 9.95999
495.008 9.90595
497.504 9.85405
500.000 9.80408
503.483 9.73712
506.965 9.67293
510.447 9.61107
513.930 9.55112
517.412 9.49273
520.895 9.43553
524.377 9.37919
527.859 9.32339
531.124 9.27127
534.389 9.21905
537.654 9.16643
540.918 9.11311
544.183 9.05884
547.448 9.00310
550.713 8.94549
553.977 8.88553
556.263 8.84179
558.548 8.79638
560.833 8.74903
563.119 8.69933
565.404 8.64695
567.689 8.59150
569.975 8.53232
571.117 8.50120
572.260 8.46899
573.457 8.43375
574.654 8.39697
575.851 8.35850
577.048 8.31816
578.245 8.27577
579.443 8.23109
580.640 8.18388
581.837 8.13386
582.925 8.08564
584.013 8.03452
585.101 7.98017
586.190 7.92220
587.278 7.86015
588.366 7.79350
588.910 7.75827
589.454 7.72170
589.999 7.68372
590.543 7.64407
591.141 7.59843
591.740 7.55055
592.338 7.50025
592.937 7.44733
593.535 7.39153
594.134 7.33262
594.732 7.27029
595.331 7.20422
595.930 7.13400
596.528 7.05925
596.827 7.02001
597.127 6.97945
597.426 6.93750
597.725 6.89408
598.024 6.84910
598.324 6.80248
598.623 6.75412
598.922 6.70393
599.222 6.65179
599.521 6.59762
599.820 6.54126
600.119 6.48264
600.419 6.42152
600.718 6.35774
601.017 6.29112
601.316 6.22151
601.616 6.14868
601.915 6.07244
602.214 5.99254
602.513 5.90877
602.813 5.82079
603.112 5.72835
603.411 5.63113
603.561 5.58064
603.711 5.52884
603.860 5.47563
604.010 5.42106
604.159 5.36503
604.309 5.30751
604.459 5.24840
604.608 5.18775
604.758 5.12548
604.908 5.06154
605.098 4.97766
605.288 4.89100
605.479 4.80143
605.669 4.70900
605.860 4.61361
606.050 4.51541
606.241 4.41443
606.336 4.36299
606.431 4.31096
606.581 4.22804
606.730 4.14403
606.880 4.05915
607.030 3.97390
607.179 3.88873
607.329 3.80447
607.404 3.76295
607.479 3.72201
607.553 3.68183
607.628 3.64260
607.696 3.60789
607.764 3.57438
607.832 3.54223
607.900 3.51170
607.968 3.48304
608.036 3.45659
608.104 3.43271
608.172 3.41180
608.240 3.39432
608.308 3.38088
608.376 3.37208
608.444 3.36865
608.512 3.37145
608.580 3.38147
608.648 3.39986
608.716 3.42799
608.785 3.46754
608.853 3.52029
608.921 3.58857
608.989 3.67511
609.057 3.78321
609.091 3.84658
609.125 3.91693
609.159 3.99490
609.193 4.08124
609.227 4.17677
609.261 4.28240
609.298 4.41190
609.335 4.55617
609.373 4.71738
609.410 4.89765
609.448 5.09949
609.485 5.32580
609.504 5.44918
609.522 5.58000
609.541 5.71881
609.560 5.86616
609.577 6.00805
609.594 6.15804
609.611 6.31666
609.628 6.48452
609.645 6.66227
609.662 6.85061
609.679 7.05029
609.696 7.26214
609.703 7.35181
609.728 7.70291
609.754 8.08774
609.767 8.29484
609.779 8.51022
609.792 8.73784
609.805 8.97475
609.820 9.27570
609.835 9.59474
609.851 9.93314
609.866 10.2923
609.881 10.6736
609.897 11.0787
609.912 11.5092
609.927 11.9669
609.942 12.4538
609.958 12.9719
609.973 13.5235
609.988 14.1108
610.004 14.7364
610.019 15.4029
610.034 16.1133
610.050 16.8704
610.062 17.4991
610.073 18.1546
610.085 18.8436
610.097 19.5680
610.109 20.3295
610.121 21.1300
610.133 21.9715
610.145 22.8562
610.157 23.7861
610.169 24.7635
610.181 25.7909
610.192 26.8705
610.204 28.0050
610.216 29.1969
610.228 30.4490
610.240 31.7641
610.259 33.9649
610.277 36.3402
610.296 38.9024
610.315 41.6643
610.334 44.6393
610.352 47.8416
610.371 51.2856
610.390 54.9862
610.408 58.9588
610.427 63.2193
610.446 67.7837
610.464 72.6684
610.483 77.8898
610.502 83.4646
610.521 89.4093
610.539 95.7405
610.558 102.511
610.577 109.666
610.595 117.254
610.614 125.292
610.633 133.791
610.652 142.767
610.670 152.229
610.689 162.190
610.708 172.658
610.726 183.640
610.745 195.143
610.764 207.169
610.782 219.720
610.801 232.796
610.820 246.393
610.839 260.505
610.857 275.123
610.876 290.235
610.913 321.880
610.951 355.282
610.988 390.231
611.026 426.561
611.063 463.762
611.138 539.549
611.185 587.453
611.233 633.930
611.270 668.769
611.308 701.574
611.345 731.847
611.383 759.111
611.422 784.273
611.462 805.091
611.487 815.795
611.512 824.513
611.537 831.230
611.562 835.900
611.570 836.996
611.578 837.870
611.605 839.068
611.632 837.812
611.659 834.126
611.686 828.055
611.714 819.491
611.741 808.618
611.769 795.551
611.796 780.425
611.825 762.736
611.853 743.182
611.882 721.959
611.910 699.274
611.967 650.383
612.024 598.240
612.102 524.958
612.141 488.405
612.180 452.608
612.208 426.947
612.237 401.963
612.265 377.763
612.294 354.437
612.322 332.059
612.351 310.686
612.379 290.360
612.408 271.108
612.436 252.881
612.465 235.811
612.493 219.820
612.522 204.892
612.550 190.998
612.579 178.106
612.607 166.175
612.636 155.161
612.661 146.323
612.685 138.138
612.710 130.539
612.734 123.491
612.759 116.963
612.784 110.922
612.808 105.335
612.833 100.173
612.857 95.4056
612.882 91.0034
612.907 86.9391
612.931 83.1868
612.956 79.7217
612.980 76.5207
613.005 73.5621
613.030 70.8255
613.058 67.8982
613.087 65.2274
613.115 62.7779
613.144 60.5274
613.172 58.4559
613.201 56.5452
613.229 54.7791
613.258 53.1430
613.286 51.6238
613.315 50.2101
613.343 48.8913
613.372 47.6585
613.400 46.5032
613.429 45.4184
613.457 44.3975
613.486 43.4348
613.519 42.3647
613.553 41.3614
613.587 40.4186
613.620 39.5330
613.654 38.6946
613.688 37.9016
613.722 37.1502
613.755 36.4390
613.789 35.7609
613.823 35.1153
613.890 33.9139
613.957 32.8149
614.025 31.8081
614.082 31.0180
614.139 30.2791
614.196 29.5867
614.253 28.9363
614.310 28.3243
614.367 27.7474
614.424 27.2026
614.481 26.6872
614.538 26.1991
614.595 25.7360
614.652 25.2961
614.709 24.8778
614.766 24.4795
614.823 24.0998
614.880 23.7374
614.937 23.3912
615.051 22.7428
615.165 22.1482
615.279 21.6007
615.393 21.0949
615.507 20.6263
615.621 20.1910
615.735 19.7856
615.849 19.4072
615.952 19.0841
616.056 18.7798
616.160 18.4922
616.263 18.2203
616.367 17.9624
616.471 17.7180
616.574 17.4858
616.678 17.2650
616.781 17.0544
616.885 16.8538
616.989 16.6624
617.092 16.4795
617.196 16.3044
617.300 16.1370
617.507 15.8227
617.621 15.6605
617.735 15.5053
617.849 15.3567
617.963 15.2142
618.191 14.9463
618.419 14.6987
618.647 14.4694
618.875 14.2563
619.103 14.0578
619.331 13.8724
619.476 13.7606
619.621 13.6533
619.911 13.4512
620.201 13.2641
620.492 13.0904
620.782 12.9286
621.072 12.7775
621.362 12.6360
621.652 12.5031
621.880 12.4042
622.108 12.3098
622.336 12.2196
622.564 12.1333
622.792 12.0506
623.020 11.9714
623.248 11.8953
623.476 11.8221
623.932 11.6840
624.388 11.5557
624.844 11.4361
625.300 11.3242
625.756 11.2192
626.212 11.1203
626.668 11.0269
627.124 10.9384
627.580 10.8544
628.036 10.7743
628.492 10.6980
628.948 10.6250
629.363 10.5612
629.777 10.4995
630.192 10.4398
630.606 10.3820
631.021 10.3258
631.436 10.2712
632.265 10.1660
633.094 10.0652
633.923 9.96798
634.752 9.87343
635.581 9.78074
636.244 9.70736
636.908 9.63425
637.571 9.56099
638.234 9.48717
638.897 9.41235
639.561 9.33602
640.224 9.25760
640.887 9.17652
641.343 9.11885
641.799 9.05936
642.255 8.99776
642.711 8.93371
643.167 8.86688
643.623 8.79684
644.079 8.72315
644.535 8.64525
644.846 8.58941
645.157 8.53113
645.468 8.47015
645.779 8.40622
646.090 8.33899
646.401 8.26808
646.712 8.19310
647.023 8.11359
647.251 8.05212
647.479 7.98771
647.707 7.92013
647.935 7.84910
648.163 7.77432
648.391 7.69545
648.505 7.65437
648.619 7.61213
648.733 7.56867
648.846 7.52400
649.023 7.45226
649.199 7.37717
649.375 7.29848
649.463 7.25772
649.551 7.21598
649.639 7.17322
649.727 7.12941
649.816 7.08453
649.904 7.03854
649.992 6.99141
650.080 6.94313
650.168 6.89366
650.256 6.84299
650.370 6.77561
650.484 6.70617
650.598 6.63469
650.712 6.56120
650.826 6.48579
650.940 6.40864
650.997 6.36947
651.054 6.32997
651.111 6.29019
651.168 6.25025
651.222 6.21186
651.277 6.17349
651.331 6.13516
651.386 6.09699
651.440 6.05910
651.494 6.02167
651.549 5.98489
651.603 5.94900
651.658 5.91423
651.712 5.88105
651.767 5.84984
651.821 5.82113
651.875 5.79559
651.930 5.77409
651.984 5.75773
652.039 5.74793
652.096 5.74677
652.153 5.75777
652.181 5.76902
652.210 5.78488
652.238 5.80608
652.267 5.83345
652.295 5.86799
652.324 5.91084
652.352 5.96336
652.381 6.02712
652.409 6.10397
652.438 6.19606
652.466 6.30590
652.494 6.43590
652.523 6.59093
652.552 6.77340
652.580 6.98830
652.609 7.24081
652.637 7.53684
652.666 7.88313
652.694 8.28738
652.708 8.51472
652.723 8.75824
652.737 9.02263
652.751 9.30551
652.765 9.61229
652.780 9.94015
652.794 10.2953
652.808 10.6744
652.822 11.0846
652.837 11.5219
652.851 11.9944
652.865 12.4976
652.879 13.0406
652.894 13.6180
652.908 14.2403
652.922 14.9011
652.936 15.6123
652.951 16.3665
652.970 17.4849
652.989 18.6991
652.999 19.3533
653.009 20.0290
653.028 21.4686
653.048 23.0408
653.067 24.7376
653.087 26.5752
653.106 28.5621
653.126 30.7186
653.145 33.0314
653.164 35.5200
653.184 38.1935
653.203 41.0759
653.223 44.1464
653.242 47.4279
653.261 50.9287
653.278 54.1631
653.295 57.5543
653.312 61.1471
653.329 64.9034
653.346 68.8717
653.363 73.0087
653.379 77.3402
653.396 81.8686
653.417 87.7509
653.438 93.9097
653.466 102.888
653.495 112.439
653.523 122.554
653.552 133.177
653.580 144.357
653.609 156.024
653.637 168.137
653.666 180.646
653.702 197.060
653.738 213.834
653.795 240.729
653.852 267.481
653.909 293.307
653.938 305.655
653.966 317.472
653.995 328.692
654.023 339.137
654.052 348.752
654.080 357.420
654.109 365.120
654.137 371.747
654.169 377.900
654.202 382.513
654.240 385.902
654.251 386.459
654.287 386.970
654.322 385.521
654.354 382.567
654.386 378.116
654.418 372.164
654.450 364.834
654.483 356.255
654.515 346.521
654.544 336.735
654.573 326.231
654.632 303.356
654.696 276.260
654.760 248.211
654.836 215.234
654.874 199.246
654.912 183.795
654.944 171.212
654.977 159.198
655.009 147.725
655.041 136.899
655.073 126.676
655.105 117.133
655.121 112.592
655.137 108.215
655.153 103.999
655.169 99.9701
655.186 96.0745
655.202 92.3361
655.218 88.7524
655.234 85.3414
655.250 82.0574
655.266 78.9186
655.282 75.9214
655.298 73.0795
655.314 70.3533
655.330 67.7569
655.346 65.2860
655.362 62.9507
655.378 60.7173
655.395 58.5966
655.411 56.5840
655.427 54.6868
655.441 53.1186
655.454 51.6217
655.468 50.1935
655.482 48.8312
655.496 47.5321
655.510 46.2938
655.524 45.1135
655.538 43.9968
655.552 42.9249
655.566 41.9038
655.579 40.9313
655.593 40.0114
655.607 39.1289
655.621 38.2883
655.635 37.4877
655.649 36.7304
655.663 36.0037
655.677 35.3113
655.690 34.6514
655.704 34.0225
655.718 33.4229
655.732 32.8510
655.746 32.3055
655.760 31.7886
655.788 30.8167
655.815 29.9325
655.843 29.1206
655.871 28.3791
655.887 27.9761
655.903 27.5921
655.935 26.8764
655.967 26.2233
656.000 25.6269
656.032 25.0770
656.064 24.5712
656.096 24.1016
656.128 23.6666
656.160 23.2599
656.192 22.8808
656.225 22.5242
656.257 22.1899
656.289 21.8737
656.321 21.5757
656.353 21.2926
656.385 21.0246
656.426 20.7013
656.467 20.3979
656.508 20.1117
656.549 19.8412
656.590 19.5843
656.631 19.3412
656.672 19.1101
656.713 18.8900
656.754 18.6797
656.795 18.4795
656.876 18.1049
656.958 17.7611
657.040 17.4445
657.104 17.2124
657.169 16.9939
657.233 16.7875
657.297 16.5925
657.362 16.4078
657.426 16.2326
657.490 16.0662
657.554 15.9079
657.619 15.7572
657.683 15.6135
657.747 15.4763
657.812 15.3452
657.876 15.2199
657.940 15.0998
658.069 14.8743
658.198 14.6663
658.326 14.4741
658.455 14.2958
658.583 14.1299
658.712 13.9752
658.841 13.8306
658.969 13.6950
659.098 13.5677
659.221 13.4532
659.343 13.3449
659.466 13.2424
659.589 13.1452
659.712 13.0529
659.834 12.9651
659.957 12.8815
660.080 12.8018
660.203 12.7256
660.325 12.6529
660.571 12.5167
660.816 12.3915
661.062 12.2760
661.319 12.1642
661.576 12.0607
661.834 11.9647
662.091 11.8753
662.348 11.7918
662.605 11.7137
662.862 11.6403
663.120 11.5713
663.517 11.4724
663.915 11.3817
664.312 11.2982
664.710 11.2210
665.107 11.1493
665.505 11.0825
665.902 11.0201
666.299 10.9616
666.814 10.8912
667.328 10.8260
667.843 10.7653
668.357 10.7088
668.872 10.6559
669.386 10.6062
669.900 10.5594
670.415 10.5152
671.210 10.4516
672.005 10.3929
672.800 10.3385
673.595 10.2877
674.390 10.2401
675.185 10.1954
675.980 10.1533
676.775 10.1135
677.804 10.0649
678.833 10.0193
679.861 9.97633
680.890 9.93565
681.919 9.89700
682.948 9.86014
683.977 9.82487
685.005 9.79103
686.970 9.72992
688.934 9.67236
690.898 9.61780
692.862 9.56557
694.826 9.51517
696.790 9.46616
698.754 9.41809
700.718 9.37059
702.683 9.32327
704.647 9.27579
706.611 9.22776
708.575 9.17878
710.539 9.12841
712.503 9.07620
714.467 9.02157
716.431 8.96403
717.460 8.93238
718.489 8.89955
719.518 8.86541
720.547 8.82980
721.576 8.79254
722.604 8.75344
723.633 8.71225
724.662 8.66871
725.551 8.62898
726.439 8.58706
727.328 8.54266
728.216 8.49551
729.105 8.44525
729.993 8.39150
730.882 8.33390
731.770 8.27173
732.285 8.23339
732.799 8.19318
733.314 8.15094
733.828 8.10648
734.342 8.05960
734.857 8.01010
735.371 7.95771
735.886 7.90215
736.400 7.84309
736.915 7.78019
737.429 7.71302
737.943 7.64110
738.458 7.56389
738.972 7.48077
739.229 7.43677
739.487 7.39102
739.744 7.34342
740.001 7.29384
740.258 7.24212
740.515 7.18815
740.773 7.13175
741.030 7.07275
741.287 7.01099
741.544 6.94627
741.801 6.87839
742.059 6.80710
742.316 6.73216
742.573 6.65330
742.830 6.57021
743.087 6.48256
743.345 6.39002
743.473 6.34178
743.602 6.29218
743.730 6.24116
743.859 6.18866
743.988 6.13463
744.116 6.07906
744.303 5.99521
744.490 5.90770
744.677 5.81637
744.864 5.72110
744.958 5.67187
745.052 5.62163
745.145 5.57031
745.239 5.51792
745.332 5.46436
745.426 5.40976
745.519 5.35405
745.613 5.29724
745.741 5.21726
745.870 5.13534
745.999 5.05153
746.127 4.96598
746.256 4.87894
746.384 4.79073
746.513 4.70183
746.577 4.65732
746.642 4.61290
746.706 4.56861
746.770 4.52475
746.835 4.48140
746.899 4.43875
746.963 4.39704
747.027 4.35652
747.092 4.31752
747.156 4.28039
747.220 4.24558
747.285 4.21362
747.349 4.18511
747.413 4.16083
747.478 4.14167
747.542 4.12874
747.606 4.12341
747.670 4.12737
747.735 4.14279
747.799 4.17238
747.863 4.21972
747.928 4.28944
747.960 4.33462
747.992 4.38772
748.024 4.45015
748.056 4.52282
748.088 4.60766
748.121 4.70590
748.153 4.82016
748.185 4.95210
748.211 5.07552
748.237 5.21458
748.264 5.37123
748.290 5.54769
748.316 5.74646
748.343 5.97035
748.369 6.22253
748.395 6.50659
748.422 6.82654
748.448 7.18686
748.461 7.38449
748.474 7.59260
748.487 7.81509
748.500 8.04935
748.514 8.29976
748.527 8.56336
748.540 8.84507
748.553 9.14155
748.566 9.45832
748.579 9.79159
748.593 10.1476
748.606 10.5219
748.620 10.9435
748.633 11.3916
748.647 11.8677
748.661 12.3734
748.675 12.9105
748.689 13.4807
748.703 14.0859
748.717 14.7232
748.731 15.4039
748.745 16.1256
748.758 16.8905
748.772 17.7008
748.786 18.5588
748.800 19.4671
748.814 20.4281
748.828 21.4368
748.838 22.2269
748.848 23.0417
748.859 23.8984
748.869 24.7816
748.881 25.9127
748.894 27.0899
748.906 28.3242
748.919 29.6178
748.931 30.9729
748.943 32.3919
748.956 33.8770
748.968 35.4307
748.980 36.9616
748.992 38.5576
749.003 40.2208
749.015 41.9533
749.027 43.7570
749.038 45.6341
749.050 47.5867
749.062 49.6168
749.073 51.7265
749.085 53.9179
749.109 58.5538
749.132 63.5406
749.155 68.8703
749.171 72.7732
749.187 76.8612
749.204 81.1390
749.220 85.5822
749.236 90.2503
749.252 95.0887
749.268 100.161
749.284 105.407
749.300 110.895
749.316 116.595
749.332 122.507
749.348 128.595
749.380 141.486
749.412 155.184
749.445 169.759
749.477 185.093
749.509 201.242
749.541 218.053
749.573 235.566
749.605 253.594
749.670 291.031
749.798 367.855
749.845 395.067
749.892 421.118
749.924 438.110
749.956 454.108
749.988 469.014
750.020 482.682
750.052 495.011
750.085 505.833
750.127 517.480
750.168 526.190
750.194 530.028
750.220 532.674
750.235 533.648
750.283 534.065
750.331 530.336
750.365 525.241
750.399 518.197
750.432 509.475
750.465 499.116
750.517 480.127
750.568 458.020
750.602 442.297
750.635 425.736
750.702 390.598
750.835 317.107
750.899 282.719
750.931 266.110
750.963 249.985
750.994 234.366
751.026 219.408
751.058 205.108
751.090 191.501
751.123 177.981
751.157 165.305
751.190 153.402
751.223 142.338
751.240 137.087
751.257 132.034
751.273 127.173
751.290 122.531
751.307 118.046
751.323 113.770
751.340 109.647
751.357 105.721
751.378 100.930
751.399 96.4261
751.420 92.1767
751.441 88.1714
751.463 84.3827
751.484 80.8354
751.505 77.5007
751.526 74.3683
751.548 71.4141
751.569 68.6559
751.590 66.0693
751.611 63.6446
751.632 61.3723
751.654 59.2433
751.675 57.2489
751.696 55.3806
751.713 53.9924
751.729 52.6737
751.746 51.4208
751.763 50.2372
751.779 49.1053
751.796 48.0292
751.813 47.0059
751.829 46.0381
751.846 45.1114
751.863 44.2291
751.880 43.3888
751.896 42.5927
751.930 41.1005
751.963 39.7447
751.996 38.5026
752.030 37.3683
752.063 36.3234
752.096 35.3638
752.130 34.4747
752.163 33.6534
752.196 32.8902
752.230 32.1789
752.263 31.5123
752.296 30.8895
752.330 30.3028
752.363 29.7520
752.396 29.2306
752.430 28.7389
752.463 28.2716
752.496 27.8291
752.530 27.4071
752.563 27.0061
752.630 26.2569
752.696 25.5712
752.763 24.9415
752.824 24.4098
752.884 23.9145
752.945 23.4512
753.006 23.0167
753.066 22.6077
753.127 22.2232
753.187 21.8604
753.248 21.5175
753.309 21.1923
753.369 20.8845
753.430 20.5923
753.491 20.3144
753.551 20.0499
753.612 19.7977
753.672 19.5571
753.733 19.3273
753.800 19.0859
753.866 18.8558
753.933 18.6363
754.000 18.4266
754.066 18.2262
754.133 18.0343
754.266 17.6745
754.400 17.3429
754.533 17.0365
754.667 16.7526
754.800 16.4890
754.885 16.3306
754.970 16.1791
755.139 15.8950
755.309 15.6333
755.479 15.3919
755.649 15.1680
755.818 14.9602
755.988 14.7666
756.158 14.5858
756.291 14.4519
756.425 14.3246
756.558 14.2035
756.691 14.0882
756.825 13.9781
756.958 13.8730
757.092 13.7725
757.225 13.6764
757.492 13.4961
757.758 13.3302
758.025 13.1770
758.292 13.0350
758.559 12.9031
758.825 12.7803
759.092 12.6655
759.359 12.5582
759.626 12.4575
759.892 12.3629
760.159 12.2738
760.426 12.1899
760.668 12.1176
760.911 12.0488
761.396 11.9209
761.881 11.8042
762.366 11.6974
762.851 11.5993
763.336 11.5089
763.821 11.4253
764.306 11.3477
764.839 11.2685
765.373 11.1951
765.906 11.1269
766.440 11.0633
766.973 11.0039
767.507 10.9482
768.040 10.8960
768.573 10.8468
769.398 10.7762
770.222 10.7116
771.047 10.6521
771.871 10.5971
772.696 10.5460
773.520 10.4984
774.345 10.4541
775.169 10.4126
776.236 10.3627
777.303 10.3166
778.370 10.2738
779.437 10.2340
780.504 10.1969
781.571 10.1621
783.705 10.0988
785.160 10.0597
786.615 10.0235
788.070 9.98976
789.525 9.95842
792.434 9.90130
795.344 9.85067
797.672 9.81412
797.818 9.81210
797.963 9.81052
798.036 9.81013
798.109 9.81025
798.145 9.81062
798.181 9.81125
798.218 9.81224
798.254 9.81367
798.291 9.81566
798.327 9.81836
798.363 9.82193
798.400 9.82657
798.436 9.83256
798.472 9.84019
798.509 9.84981
798.545 9.86181
798.582 9.87675
798.618 9.89517
798.654 9.91774
798.691 9.94513
798.727 9.97835
798.763 10.0182
798.800 10.0660
798.836 10.1227
798.872 10.1898
798.909 10.2689
798.945 10.3614
798.982 10.4687
799.018 10.5933
799.054 10.7367
799.091 10.9009
799.127 11.0875
799.163 11.2996
799.182 11.4156
799.200 11.5386
799.218 11.6689
799.236 11.8066
799.254 11.9522
799.273 12.1048
799.291 12.2665
799.309 12.4366
799.327 12.6154
799.345 12.8029
799.364 12.9995
799.382 13.2052
799.400 13.4202
799.418 13.6434
799.436 13.8774
799.454 14.1210
799.473 14.3743
799.491 14.6373
799.527 15.1926
799.564 15.7851
799.600 16.4174
799.636 17.0869
799.673 17.7922
799.709 18.5291
799.745 19.2994
799.782 20.0982
799.855 21.7656
799.927 23.5035
800.000 25.2776
800.000 40.7680
1000.00 36.0580
1500.00 30.4760
2000.00 27.1500
3000.00 23.2090
4000.00 20.8630
5000.00 19.2620
6000.00 18.0840
7000.00 17.1670
8000.00 16.4290
9000.00 15.8180
10000.0 15.3010
20000.0 12.5060
30000.0 11.2960
31000.0 11.1750
40000.0 10.5210
50000.0 10.0100
60000.0 9.63040
70000.0 9.33360
80000.0 9.09290
90000.0 8.89290
91952.3 8.85981
91952.3 8.85981
100000 8.72340
200000 7.83220
232080 7.72954
269610 7.60945
300000 7.51221
301313 7.51055
400000 7.38630
500000 7.35190
557000 7.33230
600000 7.32910
618180 7.32841
618181 7.32841
700000 7.32531
800000 7.31900
865604 7.30956
900000 7.30461
952173 7.29197
1.00000E+06 7.28040
1.03090E+06 7.26527
1.03091E+06 7.26527
1.06481E+06 7.24867
1.06481E+06 7.24867
1.20000E+06 7.18248
1.20487E+06 7.18010
1.25367E+06 7.15620
1.32269E+06 7.12241
1.36696E+06 7.10073
1.36696E+06 7.10073
1.39533E+06 7.08685
1.39533E+06 7.08684
1.40000E+06 7.08456
1.42532E+06 7.07216
1.44282E+06 7.06360
1.44282E+06 7.06360
1.47894E+06 7.04591
1.47895E+06 7.04591
1.49303E+06 7.03902
1.49303E+06 7.03901
1.50000E+06 7.03560
1.50923E+06 7.02935
1.50923E+06 7.02935
1.60000E+06 6.96782
1.80000E+06 6.83226
2.00000E+06 6.69670
2.50000E+06 6.38340
3.00000E+06 6.07010
4.00000E+06 5.62340
4.65795E+06 5.45260
5.00000E+06 5.36380
6.00000E+06 5.25770
6.82043E+06 5.24704
6.89620E+06 5.24605
7.00000E+06 5.24470
8.00000E+06 5.27640
8.90080E+06 5.31991
8.90080E+06 5.31991
8.97044E+06 5.32327
9.00000E+06 5.32470
1.00000E+07 5.37450
1.10000E+07 5.41730
1.20000E+07 5.44790
1.30000E+07 5.46510
1.40000E+07 5.46880
1.50000E+07 5.46030
1.58446E+07 5.44467
1.58446E+07 5.44467
1.59472E+07 5.44278
1.60000E+07 5.44181
1.70000E+07 5.41510
1.80000E+07 5.38270
1.90000E+07 5.34700
2.00000E+07 5.09200
