Yb-170(n,g) ENDFB-8.0
Energy(eV) XS(b)
1.00000E-05 195196
1.03125E-05 192215
1.06250E-05 189367
1.09375E-05 186642
1.12500E-05 184032
1.15625E-05 181528
1.18750E-05 179123
1.21875E-05 176811
1.25000E-05 174587
1.28125E-05 172445
1.31250E-05 170379
1.34375E-05 168386
1.37500E-05 166462
1.43750E-05 162802
1.50000E-05 159374
1.54624E-05 156973
1.59248E-05 154677
1.63871E-05 152479
1.68495E-05 150372
1.68750E-05 150259
1.69531E-05 149912
1.70313E-05 149568
1.71875E-05 148886
1.75000E-05 147551
1.81250E-05 144984
1.87500E-05 142547
1.93750E-05 140229
2.00000E-05 138020
2.09051E-05 134999
2.18102E-05 132168
2.18750E-05 131972
2.20240E-05 131524
2.21731E-05 131082
2.24712E-05 130209
2.30673E-05 128515
2.36635E-05 126886
2.42596E-05 125317
2.48558E-05 123805
2.54519E-05 122346
2.66442E-05 119577
2.75000E-05 117701
2.84375E-05 115745
2.93750E-05 113882
3.03125E-05 112107
3.12500E-05 110412
3.21875E-05 108792
3.31250E-05 107241
3.40625E-05 105755
3.50000E-05 104329
3.62500E-05 102514
3.75000E-05 100790
3.87500E-05 99150.8
4.00000E-05 97588.9
4.12500E-05 96098.6
4.25000E-05 94674.4
4.43750E-05 92652.1
4.62500E-05 90754.1
4.81250E-05 88968.1
5.00000E-05 87283.5
5.22464E-05 85385.9
5.44928E-05 83606.8
5.67392E-05 81934.5
5.89856E-05 80358.6
6.07428E-05 79187.3
6.25000E-05 78065.7
6.40625E-05 77107.5
6.56250E-05 76183.6
6.71875E-05 75292.2
6.87500E-05 74431.3
7.18750E-05 72794.6
7.50000E-05 71261.2
7.75000E-05 70101.9
8.00000E-05 68997.3
8.36203E-05 67486.4
8.72406E-05 66070.6
8.75000E-05 65972.5
8.82813E-05 65679.8
8.90625E-05 65390.9
9.06250E-05 64824.5
9.37500E-05 63734.3
9.68750E-05 62697.3
0.000100000 61709.3
0.000104493 60367.2
0.000108986 59109.1
0.000113478 57926.3
0.000117971 56811.8
0.000121486 55983.4
0.000125000 55190.2
0.000128125 54512.5
0.000131250 53859.1
0.000134375 53228.6
0.000137500 52619.8
0.000143750 51462.2
0.000150000 50377.7
0.000155000 49557.7
0.000160000 48776.5
0.000167241 47707.9
0.000174481 46706.5
0.000175000 46637.1
0.000176563 46430.0
0.000178125 46225.7
0.000181250 45825.1
0.000187500 45054.0
0.000193750 44320.5
0.000200000 43621.6
0.000206827 42894.7
0.000213655 42202.9
0.000220482 41543.5
0.000227310 40914.0
0.000234137 40312.2
0.000240964 39736.2
0.000247792 39184.1
0.000254619 38654.4
0.000264810 37902.1
0.000275000 37192.1
0.000284358 36573.9
0.000293716 35985.6
0.000294336 35947.6
0.000294922 35911.8
0.000296489 35816.6
0.000298057 35722.1
0.000301192 35535.4
0.000307461 35170.5
0.000320000 34473.2
0.000334481 33717.2
0.000348962 33008.8
0.000350000 32959.7
0.000352344 32849.6
0.000354688 32740.7
0.000359375 32526.0
0.000368750 32108.9
0.000378125 31707.5
0.000387500 31320.7
0.000396875 30947.6
0.000406250 30587.6
0.000425000 29903.5
0.000443750 29263.3
0.000462500 28662.3
0.000481250 28096.8
0.000500000 27563.3
0.000515625 27141.2
0.000531250 26737.8
0.000546875 26351.8
0.000562500 25982.0
0.000578125 25627.2
0.000593750 25286.6
0.000609375 24959.1
0.000625000 24643.9
0.000640000 24352.3
0.000667500 23843.4
0.000695000 23364.9
0.000722500 22914.0
0.000750000 22488.1
0.000781250 22031.6
0.000812500 21601.7
0.000843750 21195.9
0.000875000 20811.9
0.000906250 20448.0
0.000937500 20102.4
0.000968750 19773.6
0.00100000 19460.3
0.00103125 19161.3
0.00106250 18875.6
0.00109375 18602.2
0.00112500 18340.3
0.00115625 18089.0
0.00118750 17847.7
0.00121875 17615.7
0.00125000 17392.4
0.00128000 17185.8
0.00133500 16825.3
0.00139000 16486.2
0.00144500 16166.7
0.00150000 15864.9
0.00156250 15541.4
0.00162500 15236.6
0.00168750 14948.9
0.00175000 14676.8
0.00181250 14418.7
0.00187500 14173.7
0.00193750 13940.5
0.00200000 13718.3
0.00207000 13481.5
0.00214000 13256.3
0.00221000 13041.9
0.00228000 12837.4
0.00235000 12642.0
0.00242000 12455.2
0.00249000 12276.2
0.00256000 12104.6
0.00256250 12098.6
0.00256836 12084.6
0.00257422 12070.6
0.00259619 12018.6
0.00261817 11967.3
0.00266211 11866.5
0.00275000 11672.2
0.00284375 11474.9
0.00293750 11287.1
0.00303125 11108.0
0.00312500 10936.9
0.00321875 10773.4
0.00331250 10616.8
0.00340625 10466.7
0.00350000 10322.6
0.00359375 10184.2
0.00368750 10051.0
0.00378125 9922.78
0.00387500 9799.21
0.00396875 9680.01
0.00406250 9564.94
0.00425000 9346.23
0.00443750 9141.43
0.00462500 8949.11
0.00481250 8768.05
0.00500000 8597.18
0.00512000 8492.74
0.00526125 8374.37
0.00540250 8260.62
0.00554375 8151.21
0.00568500 8045.87
0.00582625 7944.33
0.00596750 7846.39
0.00610875 7751.82
0.00625000 7660.44
0.00640625 7562.86
0.00656250 7468.75
0.00671875 7377.90
0.00687500 7290.13
0.00718750 7123.14
0.00750000 6966.58
0.00781250 6819.38
0.00812500 6680.64
0.00843750 6549.57
0.00875000 6425.49
0.00906250 6307.79
0.00937500 6195.93
0.00968750 6089.45
0.0100000 5987.91
0.0102400 5913.06
0.0106250 5798.23
0.0109803 5697.57
0.0113357 5601.59
0.0116910 5509.94
0.0120463 5422.30
0.0125000 5315.77
0.0128725 5232.46
0.0131250 5177.98
0.0136418 5071.13
0.0140084 4998.86
0.0143750 4929.32
0.0150000 4816.56
0.0156250 4710.48
0.0162500 4610.43
0.0168750 4515.87
0.0172539 4461.00
0.0175000 4426.29
0.0181250 4341.27
0.0187500 4260.43
0.0193989 4180.56
0.0200000 4109.97
0.0206625 4035.67
0.0213250 3964.76
0.0215912 3937.16
0.0225184 3844.79
0.0234456 3757.79
0.0243728 3675.64
0.0253000 3597.92
0.0264157 3509.70
0.0275314 3426.73
0.0286471 3348.50
0.0297628 3274.57
0.0299313 3263.76
0.0303172 3239.31
0.0307031 3215.31
0.0314750 3168.59
0.0318042 3149.17
0.0324922 3109.50
0.0331802 3071.03
0.0345563 2997.44
0.0359324 2927.97
0.0373084 2862.25
0.0376500 2846.47
0.0388078 2794.50
0.0399656 2744.73
0.0411234 2697.00
0.0422813 2651.17
0.0426292 2637.75
0.0435506 2602.96
0.0444719 2569.22
0.0463146 2504.66
0.0481573 2443.72
0.0500000 2386.05
0.0506000 2367.93
0.0516969 2335.59
0.0527938 2304.23
0.0549875 2244.24
0.0571813 2187.62
0.0593750 2134.05
0.0595257 2130.47
0.0598975 2121.71
0.0602693 2113.03
0.0613846 2087.44
0.0625000 2062.51
0.0640146 2029.68
0.0655292 1997.96
0.0670438 1967.29
0.0685584 1937.61
0.0700730 1908.86
0.0715876 1881.01
0.0731022 1854.00
0.0746168 1827.79
0.0750000 1821.28
0.0765625 1795.24
0.0781250 1769.96
0.0812500 1721.55
0.0843750 1675.81
0.0875000 1632.50
0.0906250 1591.42
0.0937500 1552.37
0.0968750 1515.20
0.100000 1479.76
0.102344 1454.24
0.104688 1429.58
0.107031 1405.74
0.109375 1382.68
0.111719 1360.34
0.114063 1338.71
0.116406 1317.73
0.118750 1297.39
0.119051 1294.82
0.119795 1288.52
0.120539 1282.27
0.122026 1269.96
0.125000 1246.02
0.128125 1221.78
0.131250 1198.44
0.134375 1175.93
0.137500 1154.22
0.140625 1133.27
0.143750 1113.03
0.146875 1093.47
0.150000 1074.56
0.153125 1056.27
0.156250 1038.56
0.159375 1021.41
0.162500 1004.79
0.165625 988.679
0.168750 973.055
0.171875 957.899
0.175000 943.189
0.178125 928.905
0.181250 915.027
0.184375 901.540
0.187500 888.428
0.193750 863.269
0.200000 839.441
0.204688 822.392
0.209375 806.011
0.214063 790.264
0.218750 775.116
0.223438 760.538
0.228125 746.501
0.232813 732.982
0.237500 719.956
0.238103 718.316
0.240409 712.112
0.242715 706.020
0.247327 694.156
0.251939 682.703
0.256551 671.644
0.261164 660.964
0.265776 650.653
0.270388 640.697
0.275000 631.082
0.282031 617.052
0.289063 603.746
0.296094 591.129
0.303125 579.162
0.310156 567.812
0.317188 557.053
0.324219 546.866
0.331250 537.232
0.335938 531.106
0.340625 525.209
0.345313 519.534
0.350000 514.075
0.357617 505.659
0.365234 497.799
0.372852 490.484
0.380469 483.696
0.388086 477.421
0.395703 471.648
0.403320 466.376
0.410938 461.606
0.417969 457.653
0.425000 454.133
0.430544 451.661
0.436088 449.458
0.441632 447.528
0.447176 445.875
0.452721 444.506
0.458265 443.429
0.463809 442.649
0.469353 442.172
0.477015 442.031
0.484676 442.519
0.500000 445.519
0.512117 449.968
0.524234 456.451
0.536351 465.232
0.548467 476.633
0.560584 491.065
0.572701 509.108
0.578760 519.696
0.584818 531.458
0.590876 544.510
0.596935 558.986
0.605659 582.639
0.614382 610.088
0.623106 641.979
0.627468 659.839
0.631830 679.133
0.636192 700.001
0.640554 722.595
0.644916 747.089
0.649278 773.677
0.653639 802.574
0.658001 834.027
0.662363 868.318
0.666725 905.764
0.672456 960.391
0.678187 1022.08
0.681053 1055.93
0.683919 1092.00
0.686784 1130.46
0.689650 1171.53
0.692515 1215.42
0.695381 1262.38
0.698247 1312.66
0.701112 1366.57
0.703978 1424.42
0.706843 1486.58
0.709709 1553.44
0.712574 1625.42
0.715180 1695.71
0.717785 1771.01
0.720390 1851.75
0.722995 1938.38
0.725600 2031.39
0.728205 2131.28
0.730810 2238.62
0.733415 2353.96
0.735837 2468.90
0.738259 2591.75
0.740681 2722.99
0.743103 2863.09
0.745136 2987.86
0.747169 3119.40
0.749202 3257.93
0.751235 3403.59
0.753268 3556.49
0.755301 3716.65
0.757334 3884.04
0.759367 4058.50
0.761234 4224.76
0.763102 4396.46
0.764969 4573.25
0.766836 4754.59
0.768703 4939.89
0.770571 5128.39
0.772438 5319.25
0.774305 5511.47
0.775877 5673.54
0.777449 5835.07
0.779021 5995.28
0.780593 6153.33
0.783736 6459.45
0.786880 6746.06
0.789395 6956.21
0.791910 7145.17
0.794425 7309.29
0.796940 7445.25
0.799455 7550.18
0.801970 7621.83
0.804485 7658.59
0.807000 7659.62
0.809600 7623.08
0.811953 7557.74
0.814305 7462.98
0.816658 7340.55
0.819010 7192.66
0.821363 7021.89
0.823715 6831.10
0.826068 6623.37
0.828420 6401.83
0.831608 6085.22
0.834795 5756.59
0.837983 5422.90
0.841171 5090.29
0.844359 4763.93
0.847546 4447.98
0.850734 4145.59
0.853922 3858.97
0.856984 3599.78
0.860046 3357.05
0.863109 3130.91
0.866171 2921.11
0.869234 2727.12
0.872296 2548.19
0.875358 2383.45
0.878421 2231.98
0.881684 2084.07
0.884947 1948.97
0.888210 1825.53
0.891473 1712.69
0.894736 1609.47
0.897999 1514.95
0.901262 1428.30
0.904525 1348.75
0.906912 1294.67
0.909299 1243.77
0.911686 1195.84
0.914073 1150.66
0.916762 1102.81
0.919452 1057.95
0.922142 1015.86
0.924832 976.323
0.927522 939.148
0.930212 904.159
0.932902 871.195
0.935592 840.110
0.940971 783.044
0.946351 732.015
0.951731 686.224
0.957111 644.996
0.962472 607.880
0.967833 574.241
0.973194 543.667
0.978555 515.804
0.983917 490.347
0.989278 467.034
0.994639 445.637
1.00000 425.958
1.00793 399.624
1.01587 376.202
1.02380 355.289
1.03173 336.560
1.03967 319.737
1.04760 304.595
1.05553 290.941
1.06347 278.614
1.07000 269.363
1.07875 258.125
1.08750 248.089
1.09625 239.148
1.10500 231.219
1.11375 224.238
1.12250 218.159
1.13125 212.954
1.14000 208.616
1.14842 205.271
1.15684 202.771
1.16525 201.172
1.17367 200.556
1.18275 201.134
1.18729 201.969
1.19184 203.213
1.19638 204.905
1.20092 207.095
1.20546 209.839
1.21000 213.203
1.21602 218.752
1.22203 225.745
1.22504 229.862
1.22805 234.442
1.23106 239.524
1.23406 245.149
1.23707 251.367
1.24008 258.222
1.24309 265.763
1.24609 274.036
1.24910 283.095
1.25211 292.981
1.25512 303.732
1.25813 315.375
1.26250 333.946
1.26688 354.441
1.27125 376.756
1.27563 400.663
1.28000 425.792
1.28419 450.502
1.28919 479.987
1.29419 508.272
1.29919 533.950
1.30169 545.356
1.30419 555.569
1.30814 568.887
1.31209 578.247
1.31605 583.225
1.31802 583.985
1.32000 583.572
1.32250 581.368
1.32500 577.315
1.32750 571.472
1.33000 563.927
1.33250 554.795
1.33500 544.213
1.33750 532.335
1.34000 519.330
1.34500 490.652
1.35000 459.615
1.35250 443.643
1.36000 395.731
1.36413 370.218
1.36739 350.911
1.37065 332.476
1.37391 315.013
1.37717 298.581
1.38043 283.206
1.38369 268.888
1.38695 255.606
1.39021 243.321
1.39377 230.999
1.39733 219.732
1.39999 211.923
1.40266 204.632
1.40533 197.822
1.40800 191.460
1.41066 185.515
1.41333 179.955
1.41866 169.882
1.42400 161.033
1.42933 153.232
1.43467 146.324
1.44000 140.180
1.44447 135.539
1.44894 131.305
1.45342 127.430
1.45789 123.873
1.46236 120.600
1.46683 117.580
1.47578 112.195
1.48472 107.544
1.49366 103.493
1.50261 99.9361
1.51155 96.7935
1.52000 94.1467
1.53000 91.3574
1.54000 88.8865
1.55000 86.6890
1.56000 84.7288
1.57000 82.9766
1.58000 81.4076
1.60000 78.7396
1.62000 76.6030
1.64000 74.9266
1.66000 73.6663
1.68000 72.7918
1.70000 72.2853
1.72000 72.1437
1.74000 72.3792
1.76000 73.0190
1.78000 74.1061
1.80000 75.6975
1.81000 76.7052
1.82000 77.8694
1.83000 79.2043
1.84000 80.7261
1.85000 82.4538
1.86000 84.4103
1.87000 86.6225
1.88000 89.1226
1.89000 91.9485
1.90000 95.1441
1.91000 98.7610
1.92000 102.859
1.93000 107.511
1.94000 112.804
1.95000 118.844
1.96000 125.763
1.96500 129.602
1.97000 133.725
1.97500 138.161
1.98000 142.939
1.98500 148.093
1.99000 153.663
1.99500 159.692
2.00000 166.231
2.00443 172.500
2.00887 179.258
2.01330 186.555
2.01773 194.449
2.02217 203.007
2.02660 212.299
2.03103 222.412
2.03547 233.442
2.03935 243.951
2.04324 255.333
2.04712 267.691
2.05100 281.132
2.05489 295.788
2.05877 311.796
2.06266 329.331
2.06654 348.573
2.06964 365.291
2.07274 383.351
2.07583 402.895
2.07893 424.074
2.08203 447.051
2.08513 472.010
2.08822 499.148
2.09132 528.679
2.09462 563.091
2.09793 600.774
2.10123 642.063
2.10454 687.252
2.10784 736.693
2.11115 790.672
2.11445 849.498
2.11775 913.432
2.12106 982.705
2.12436 1057.41
2.12767 1137.60
2.13097 1223.21
2.13428 1314.03
2.13758 1409.62
2.14088 1509.45
2.14419 1612.75
2.14735 1713.81
2.15050 1816.13
2.15682 2019.74
2.16313 2212.60
2.16629 2301.19
2.16944 2382.46
2.17201 2442.18
2.17458 2495.26
2.17715 2541.04
2.17972 2578.88
2.18229 2608.28
2.18486 2628.81
2.18743 2640.20
2.19000 2642.27
2.19339 2630.72
2.19679 2603.20
2.20018 2560.38
2.20358 2503.35
2.20708 2430.91
2.21059 2346.52
2.21409 2252.11
2.21760 2149.82
2.22110 2041.71
2.22461 1929.93
2.23162 1702.87
2.23534 1584.02
2.23907 1468.58
2.24279 1357.82
2.24652 1252.73
2.25024 1153.92
2.25397 1061.83
2.25769 976.589
2.26142 898.213
2.26514 826.479
2.26887 761.120
2.27259 701.766
2.27631 648.010
2.28004 599.380
2.28376 555.454
2.28749 515.770
2.29121 479.929
2.29392 456.039
2.29663 433.828
2.29934 413.165
2.30205 393.932
2.30476 376.002
2.30747 359.277
2.31017 343.660
2.31288 329.068
2.31610 312.944
2.31932 298.021
2.32253 284.185
2.32575 271.342
2.32897 259.394
2.33218 248.268
2.33540 237.886
2.33862 228.189
2.34183 219.114
2.34505 210.614
2.34827 202.637
2.35148 195.146
2.35470 188.097
2.35791 181.461
2.36113 175.202
2.36435 169.295
2.37020 159.369
2.37604 150.383
2.38189 142.220
2.38774 134.781
2.39531 126.090
2.40289 118.320
2.41046 111.345
2.41803 105.058
2.42560 99.3701
2.43318 94.2074
2.44075 89.5056
2.44832 85.2111
2.45543 81.5064
2.46254 78.0860
2.46965 74.9198
2.47676 71.9832
2.48388 69.2530
2.49099 66.7104
2.49810 64.3375
2.50521 62.1197
2.51232 60.0428
2.51943 58.0953
2.53365 54.5454
2.54787 51.3959
2.56209 48.5870
2.57293 46.6451
2.57675 45.9959
2.58870 44.0823
2.60065 42.3245
2.61261 40.7043
2.62456 39.2066
2.63651 37.8179
2.64846 36.5276
2.66041 35.3259
2.67236 34.2045
2.69626 32.1735
2.72016 30.3844
2.74406 28.7973
2.76796 27.3800
2.78451 26.4841
2.80105 25.6498
2.81760 24.8708
2.83415 24.1420
2.86724 22.8162
2.90034 21.6410
2.93343 20.5918
2.96652 19.6483
2.99962 18.7944
3.03271 18.0174
3.05815 17.4659
3.08359 16.9500
3.13447 16.0110
3.18535 15.1765
3.23623 14.4295
3.28710 13.7574
3.33798 13.1479
3.38886 12.5921
3.43974 12.0836
3.48850 11.6352
3.53726 11.2221
3.58601 10.8385
3.63477 10.4799
3.68353 10.1451
3.73229 9.83209
3.78105 9.53776
3.82980 9.26261
3.92732 8.76257
4.02484 8.32136
4.12235 7.92329
4.21987 7.57179
4.30655 7.28962
4.31422 7.26590
4.33565 7.20088
4.35708 7.13776
4.39994 7.01687
4.48567 6.79225
4.57139 6.58900
4.65711 6.40696
4.74283 6.24411
4.82856 6.09756
4.91428 5.97079
5.00000 5.86099
5.11414 5.74185
5.22827 5.65501
5.34240 5.60182
5.45654 5.58352
5.46495 5.58361
5.49834 5.58671
5.53173 5.59432
5.59852 5.62253
5.66530 5.66941
5.73208 5.73817
5.79886 5.83285
5.86565 5.95875
5.93243 6.12298
5.96582 6.22278
5.99921 6.33628
6.04140 6.50174
6.08359 6.69671
6.12578 6.92841
6.16797 7.20498
6.18907 7.36320
6.21016 7.53679
6.23126 7.72766
6.25235 7.93800
6.27345 8.17039
6.29454 8.42785
6.31564 8.71404
6.33673 9.03345
6.35424 9.32771
6.37175 9.65232
6.38926 10.0116
6.40677 10.4105
6.42428 10.8550
6.44178 11.3522
6.45929 11.9108
6.47680 12.5417
6.49233 13.1725
6.50786 13.8820
6.52338 14.6845
6.53891 15.5970
6.54668 16.1010
6.55444 16.6411
6.56220 17.2207
6.56997 17.8438
6.57773 18.5152
6.58550 19.2400
6.59326 20.0241
6.60102 20.8745
6.61091 22.0653
6.62079 23.3957
6.63067 24.8894
6.63561 25.7062
6.64055 26.5751
6.64549 27.5009
6.65043 28.4889
6.65537 29.5449
6.66031 30.6753
6.66525 31.8881
6.67020 33.1913
6.67514 34.5947
6.68008 36.1086
6.68396 37.3839
6.68784 38.7420
6.69172 40.1901
6.69560 41.7365
6.69949 43.3902
6.70337 45.1613
6.70725 47.0609
6.71113 49.1015
6.71501 51.2965
6.71890 53.6610
6.72278 56.2116
6.72666 58.9664
6.73054 61.9452
6.73442 65.1698
6.73831 68.6635
6.74219 72.4519
6.74484 75.2177
6.74748 78.1423
6.75013 81.2350
6.75278 84.5056
6.75542 87.9644
6.75807 91.6218
6.76072 95.4883
6.76336 99.5734
6.76601 103.891
6.76866 108.450
6.77130 113.263
6.77395 118.337
6.77660 123.687
6.77924 129.322
6.78189 135.250
6.78454 141.479
6.78842 151.182
6.79230 161.574
6.79618 172.673
6.80007 184.485
6.80395 197.012
6.80783 210.244
6.81171 224.161
6.81559 238.727
6.82265 266.738
6.82971 296.357
6.83723 329.087
6.84476 362.176
6.85228 394.605
6.85980 425.224
6.86671 450.732
6.87017 462.246
6.87362 472.784
6.87707 482.251
6.88053 490.549
6.88398 497.594
6.88744 503.315
6.89058 507.317
6.89372 510.142
6.89686 511.765
6.90000 512.172
6.90314 511.360
6.90628 509.337
6.90942 506.121
6.91256 501.742
6.91570 496.235
6.91884 489.652
6.92513 473.483
6.92934 460.614
6.93355 446.333
6.93776 430.839
6.94198 414.344
6.95040 379.171
6.95883 342.469
6.96737 305.246
6.97590 269.300
6.98017 252.127
6.98444 235.621
6.98871 219.853
6.99298 204.884
6.99725 190.740
7.00152 177.446
7.00578 165.006
7.01005 153.416
7.01432 142.653
7.01859 132.695
7.02286 123.504
7.02713 115.046
7.02984 110.024
7.03256 105.271
7.03528 100.772
7.03799 96.5205
7.04071 92.5005
7.04343 88.7036
7.04614 85.1158
7.04886 81.7285
7.05158 78.5286
7.05429 75.5079
7.05701 72.6540
7.05972 69.9593
7.06244 67.4125
7.06516 65.0065
7.07059 60.5811
7.07486 57.4314
7.07913 54.5407
7.08340 51.8839
7.08766 49.4391
7.09193 47.1847
7.09620 45.1029
7.10047 43.1773
7.10474 41.3936
7.10901 39.7377
7.11328 38.1983
7.11755 36.7647
7.12181 35.4278
7.12608 34.1785
7.13035 33.0098
7.13462 31.9145
7.13889 30.8869
7.14432 29.6678
7.14975 28.5391
7.15519 27.4921
7.16062 26.5190
7.16605 25.6130
7.17149 24.7680
7.17692 23.9787
7.18235 23.2404
7.19322 21.8995
7.20408 20.7165
7.21495 19.6677
7.22581 18.7341
7.23422 18.0804
7.24263 17.4800
7.25104 16.9273
7.25945 16.4179
7.26786 15.9474
7.27627 15.5124
7.29308 14.7363
7.30990 14.0679
7.32672 13.4904
7.34353 12.9901
7.36035 12.5556
7.37536 12.2162
7.39037 11.9167
7.40537 11.6524
7.42038 11.4197
7.43539 11.2153
7.45040 11.0364
7.48041 10.7464
7.51043 10.5345
7.54044 10.3894
7.57046 10.3027
7.60047 10.2684
7.63323 10.2854
7.66599 10.3560
7.69875 10.4781
7.73151 10.6512
7.76427 10.8765
7.79703 11.1563
7.82979 11.4947
7.86255 11.8972
7.88913 12.2761
7.91572 12.7076
7.94230 13.1981
7.96888 13.7560
7.99546 14.3915
8.02205 15.1175
8.04863 15.9504
8.06192 16.4133
8.07521 16.9114
8.09291 17.6356
8.11061 18.4390
8.12831 19.3340
8.14601 20.3358
8.16371 21.4630
8.18141 22.7389
8.19026 23.4415
8.19911 24.1930
8.20796 24.9982
8.21681 25.8627
8.23039 27.3199
8.24397 28.9608
8.25076 29.8607
8.25755 30.8205
8.26434 31.8460
8.27112 32.9439
8.27791 34.1221
8.28470 35.3891
8.29149 36.7552
8.29828 38.2320
8.30507 39.8328
8.31186 41.5736
8.31865 43.4726
8.32544 45.5513
8.33373 48.3737
8.34203 51.5587
8.34618 53.3082
8.35033 55.1752
8.35448 57.1711
8.35863 59.3080
8.36278 61.5996
8.36693 64.0610
8.37108 66.7089
8.37522 69.5618
8.37937 72.6398
8.38352 75.9652
8.38767 79.5621
8.39182 83.4560
8.39521 86.8844
8.39861 90.5470
8.40200 94.4635
8.40540 98.6502
8.40879 103.129
8.41219 107.918
8.41558 113.040
8.41898 118.514
8.42237 124.366
8.42576 130.614
8.42916 137.284
8.43255 144.393
8.43595 151.969
8.43934 160.025
8.44274 168.585
8.44613 177.664
8.45028 189.492
8.45443 202.142
8.45858 215.630
8.46273 229.962
8.46688 245.135
8.47102 261.133
8.47517 277.930
8.47932 295.484
8.48309 312.052
8.48687 329.141
8.49064 346.695
8.49441 364.630
8.49743 379.202
8.50044 393.913
8.50346 408.711
8.50648 423.540
8.51251 453.049
8.51855 481.903
8.52601 515.867
8.53348 546.871
8.54041 572.049
8.54733 592.953
8.55300 606.395
8.55867 616.212
8.56433 622.183
8.57000 624.174
8.57567 622.147
8.58134 616.165
8.58700 606.379
8.59267 593.032
8.59923 573.555
8.60579 550.337
8.61235 524.059
8.61891 495.451
8.62483 468.256
8.63075 440.302
8.63667 412.092
8.64259 384.085
8.65066 346.936
8.65873 311.748
8.66277 295.085
8.66680 279.126
8.67084 263.905
8.67487 249.459
8.68079 229.701
8.68671 211.657
8.68967 203.271
8.69263 195.305
8.69559 187.746
8.69855 180.590
8.70151 173.822
8.70447 167.434
8.70743 161.410
8.71039 155.740
8.71335 150.407
8.71630 145.400
8.71926 140.702
8.72222 136.303
8.72653 130.402
8.73083 125.056
8.73514 120.223
8.73944 115.866
8.74375 111.943
8.74805 108.422
8.75236 105.270
8.75666 102.456
8.76097 99.9526
8.76527 97.7339
8.76958 95.7773
8.77388 94.0624
8.77819 92.5695
8.78249 91.2828
8.79110 89.2684
8.79971 87.9193
8.80832 87.1586
8.81424 86.9461
8.82015 86.9695
8.82607 87.2177
8.83199 87.6822
8.83791 88.3571
8.84383 89.2388
8.84975 90.3257
8.85567 91.6185
8.86159 93.1197
8.86751 94.8337
8.87343 96.7669
8.87934 98.9277
8.88526 101.327
8.89118 103.977
8.89710 106.893
8.90302 110.092
8.90840 113.266
8.91378 116.709
8.91916 120.444
8.92454 124.493
8.92992 128.885
8.93531 133.650
8.94069 138.823
8.94607 144.445
8.95010 148.985
8.95414 153.826
8.95817 158.992
8.96221 164.510
8.96625 170.413
8.97028 176.732
8.97432 183.505
8.97835 190.771
8.98239 198.580
8.98642 206.980
8.99046 216.028
8.99450 225.782
8.99853 236.316
9.00257 247.699
9.00660 260.019
9.01064 273.359
9.01360 283.852
9.01656 294.986
9.01952 306.811
9.02248 319.365
9.02544 332.706
9.02839 346.875
9.03135 361.935
9.03431 377.932
9.03727 394.932
9.04023 412.984
9.04319 432.162
9.04615 452.513
9.04911 474.115
9.05207 497.016
9.05503 521.288
9.05799 546.993
9.06041 569.142
9.06283 592.317
9.06525 616.568
9.06767 641.905
9.07010 668.378
9.07252 695.993
9.07494 724.784
9.07736 754.774
9.07978 785.995
9.08220 818.434
9.08462 852.132
9.08705 887.068
9.09189 960.713
9.09673 1039.31
9.09969 1089.75
9.10265 1141.95
9.10561 1195.85
9.10857 1251.34
9.11449 1366.77
9.12041 1487.26
9.12633 1611.55
9.13225 1738.09
9.14408 1990.54
9.15020 2116.27
9.15632 2235.46
9.16244 2345.53
9.16856 2443.95
9.17219 2495.84
9.17581 2542.35
9.17944 2583.05
9.18307 2617.59
9.18670 2645.65
9.19033 2666.97
9.19395 2681.35
9.19758 2688.65
9.20000 2689.56
9.20555 2679.65
9.20884 2665.96
9.21213 2646.58
9.21542 2621.65
9.21871 2591.38
9.22529 2515.75
9.23187 2421.94
9.23570 2360.05
9.23953 2293.51
9.24718 2148.87
9.25484 1992.97
9.26249 1830.80
9.27885 1483.80
9.28703 1319.04
9.29112 1240.36
9.29520 1164.58
9.29929 1091.92
9.30338 1022.57
9.30747 956.649
9.31156 894.232
9.31565 835.345
9.31974 779.977
9.32383 728.080
9.32792 679.575
9.33052 650.418
9.33312 622.573
9.33572 595.995
9.33833 570.648
9.34093 546.494
9.34353 523.492
9.34613 501.601
9.34873 480.781
9.35134 460.989
9.35394 442.183
9.35654 424.319
9.35914 407.358
9.36174 391.256
9.36435 375.975
9.36695 361.472
9.36955 347.711
9.37364 327.493
9.37773 308.873
9.38182 291.718
9.38591 275.905
9.38999 261.319
9.39408 247.853
9.39817 235.408
9.40226 223.895
9.40635 213.230
9.41044 203.338
9.41453 194.150
9.41862 185.604
9.42271 177.643
9.42680 170.217
9.43088 163.278
9.43497 156.786
9.43906 150.700
9.44315 144.991
9.44724 139.625
9.45133 134.575
9.45542 129.817
9.45951 125.326
9.46769 117.070
9.47586 109.665
9.48404 102.994
9.49222 96.9598
9.50040 91.4803
9.50783 86.9224
9.51527 82.7234
9.52270 78.8442
9.53014 75.2531
9.53757 71.9206
9.54501 68.8224
9.55244 65.9358
9.55987 63.2421
9.56731 60.7235
9.57474 58.3654
9.58218 56.1536
9.58961 54.0765
9.59705 52.1227
9.60448 50.2830
9.61935 46.9103
9.62753 45.2121
9.63571 43.6142
9.64389 42.1087
9.65206 40.6884
9.66842 38.0788
9.68478 35.7413
9.70113 33.6391
9.71749 31.7418
9.73384 30.0236
9.75020 28.4627
9.76804 26.9176
9.78589 25.5170
9.79927 24.5508
9.81265 23.6498
9.82603 22.8080
9.83941 22.0206
9.85280 21.2829
9.86618 20.5910
9.89294 19.3305
9.91971 18.2142
9.94647 17.2220
9.97324 16.3372
10.0000 15.3794
10.0177 14.9136
10.0355 14.4792
10.0709 13.6948
10.1064 13.0086
10.1418 12.4073
10.1773 11.8791
10.2127 11.4151
10.2482 11.0071
10.2836 10.6488
10.3191 10.3346
10.3545 10.0601
10.3900 9.82143
10.4254 9.61534
10.4609 9.43905
10.4964 9.29039
10.5318 9.16740
10.5673 9.06850
10.6027 8.99239
10.6382 8.93810
10.6736 8.90479
10.7091 8.89194
10.7445 8.89915
10.7800 8.92626
10.8154 8.97329
10.8509 9.04045
10.8863 9.12818
10.9218 9.23703
10.9572 9.36785
10.9927 9.52169
11.0282 9.69992
11.0636 9.90402
11.0991 10.1359
11.1345 10.3980
11.1700 10.6929
11.2054 11.0236
11.2409 11.3943
11.2763 11.8089
11.3118 12.2732
11.3472 12.7930
11.3827 13.3760
11.4181 14.0310
11.4536 14.7692
11.4890 15.6031
11.5245 16.5490
11.5422 17.0701
11.5599 17.6265
11.5777 18.2223
11.5954 18.8606
11.6131 19.5456
11.6309 20.2813
11.6486 21.0737
11.6663 21.9279
11.6840 22.8513
11.7018 23.8506
11.7195 24.9355
11.7372 26.1156
11.7549 27.4022
11.7727 28.8080
11.7904 30.3502
11.8081 32.0462
11.8259 33.9176
11.8436 35.9885
11.8613 38.2916
11.8790 40.8623
11.8968 43.7444
11.9056 45.3177
11.9145 46.9896
11.9234 48.7710
11.9322 50.6673
11.9411 52.6913
11.9499 54.8547
11.9588 57.1738
11.9677 59.6584
11.9765 62.3280
11.9854 65.2018
11.9943 68.3052
12.0031 71.6561
12.0120 75.2905
12.0208 79.2327
12.0297 83.5291
12.0386 88.2133
12.0474 93.3402
12.0563 98.9682
12.0652 105.173
12.0740 112.023
12.0829 119.618
12.0917 128.074
12.0962 132.676
12.1006 137.537
12.1050 142.688
12.1095 148.152
12.1139 153.956
12.1183 160.128
12.1228 166.701
12.1272 173.710
12.1316 181.212
12.1361 189.217
12.1405 197.791
12.1449 206.989
12.1494 216.895
12.1538 227.536
12.1582 239.011
12.1604 245.102
12.1627 251.407
12.1649 257.997
12.1671 264.858
12.1693 272.004
12.1715 279.417
12.1737 287.180
12.1760 295.242
12.1782 303.694
12.1804 312.482
12.1826 321.705
12.1848 331.306
12.1870 341.395
12.1892 351.909
12.1915 362.972
12.1937 374.515
12.1959 386.677
12.1981 399.382
12.2003 412.787
12.2025 426.875
12.2048 441.693
12.2070 457.216
12.2092 473.638
12.2114 490.867
12.2136 509.119
12.2158 528.295
12.2181 548.640
12.2203 570.046
12.2225 592.790
12.2247 616.754
12.2269 642.252
12.2291 669.157
12.2313 697.824
12.2336 728.112
12.2358 760.427
12.2380 794.771
12.2402 831.294
12.2424 869.972
12.2446 911.321
12.2469 955.145
12.2491 1002.02
12.2513 1051.73
12.2535 1104.90
12.2557 1161.27
12.2579 1221.53
12.2601 1285.36
12.2624 1353.49
12.2646 1425.50
12.2668 1502.15
12.2690 1582.86
12.2716 1682.26
12.2741 1787.13
12.2767 1897.55
12.2793 2013.03
12.2818 2133.21
12.2844 2255.97
12.2869 2380.19
12.2895 2503.81
12.2921 2624.79
12.2946 2739.27
12.2972 2844.49
12.2998 2937.03
12.3023 3013.81
12.3049 3071.23
12.3074 3107.20
12.3100 3120.16
12.3126 3109.51
12.3151 3075.87
12.3177 3020.83
12.3203 2946.82
12.3228 2856.49
12.3254 2753.90
12.3279 2642.14
12.3305 2524.46
12.3331 2403.31
12.3356 2282.14
12.3408 2046.06
12.3433 1933.49
12.3459 1826.51
12.3484 1725.20
12.3510 1629.83
12.3532 1554.04
12.3553 1482.52
12.3575 1415.19
12.3596 1352.21
12.3618 1292.85
12.3639 1237.49
12.3661 1185.45
12.3683 1137.02
12.3704 1091.58
12.3726 1049.19
12.3747 1009.66
12.3769 972.999
12.3790 938.705
12.3812 906.948
12.3834 877.292
12.3855 849.882
12.3877 824.340
12.3898 800.685
12.3920 778.814
12.3941 758.719
12.3963 740.125
12.3984 723.126
12.4028 693.296
12.4071 668.677
12.4114 648.982
12.4157 633.840
12.4200 623.026
12.4243 616.385
12.4286 613.878
12.4329 615.490
12.4373 621.298
12.4416 631.488
12.4459 646.247
12.4502 665.916
12.4524 677.746
12.4545 690.906
12.4567 705.588
12.4588 721.805
12.4610 739.638
12.4631 759.080
12.4653 780.404
12.4674 803.511
12.4696 828.720
12.4718 855.907
12.4739 885.438
12.4761 917.306
12.4782 951.629
12.4804 988.342
12.4825 1027.89
12.4847 1070.01
12.4869 1115.16
12.4890 1162.97
12.4916 1223.91
12.4941 1288.64
12.4967 1357.21
12.4993 1429.29
12.5018 1504.61
12.5044 1581.82
12.5069 1660.13
12.5095 1738.20
12.5121 1814.64
12.5146 1886.90
12.5172 1953.13
12.5198 2011.05
12.5223 2058.58
12.5249 2093.33
12.5274 2113.88
12.5300 2119.19
12.5326 2108.82
12.5351 2083.24
12.5377 2043.47
12.5403 1991.14
12.5428 1928.00
12.5454 1856.79
12.5479 1779.55
12.5505 1698.44
12.5531 1615.07
12.5556 1531.74
12.5608 1369.37
12.5633 1291.83
12.5659 1218.04
12.5684 1147.99
12.5710 1081.88
12.5743 1002.05
12.5776 928.981
12.5810 861.958
12.5843 800.995
12.5876 745.288
12.5909 694.723
12.5942 648.550
12.5975 606.621
12.6008 568.286
12.6042 533.410
12.6075 501.449
12.6108 472.293
12.6141 445.496
12.6174 420.974
12.6207 398.428
12.6240 377.664
12.6274 358.454
12.6307 340.759
12.6340 324.334
12.6373 309.155
12.6406 295.020
12.6439 281.916
12.6472 269.712
12.6505 258.328
12.6539 247.664
12.6572 237.720
12.6605 228.379
12.6638 219.645
12.6671 211.418
12.6704 203.708
12.6737 196.449
12.6771 189.608
12.6837 177.038
12.6903 165.803
12.6969 155.720
12.7036 146.637
12.7102 138.426
12.7168 130.979
12.7235 124.204
12.7301 118.033
12.7367 112.378
12.7433 107.192
12.7500 102.424
12.7566 98.0387
12.7632 93.9837
12.7699 90.2332
12.7765 86.7581
12.7831 83.5374
12.7897 80.5389
12.7964 77.7476
12.8030 75.1458
12.8096 72.7176
12.8163 70.4490
12.8229 68.3273
12.8361 64.4830
12.8494 61.1015
12.8626 58.1250
12.8759 55.4972
12.8892 53.1798
12.9024 51.1343
12.9157 49.3335
12.9289 47.7535
12.9422 46.3755
12.9554 45.1812
12.9687 44.1592
12.9820 43.2976
12.9952 42.5896
13.0085 42.0286
13.0217 41.6113
13.0350 41.3361
13.0482 41.2036
13.0615 41.2161
13.0747 41.3785
13.0880 41.6982
13.1013 42.1851
13.1145 42.8534
13.1278 43.7201
13.1410 44.8073
13.1543 46.1417
13.1675 47.7604
13.1808 49.7046
13.1874 50.8170
13.1941 52.0331
13.2007 53.3621
13.2073 54.8125
13.2139 56.4004
13.2206 58.1373
13.2272 60.0387
13.2338 62.1221
13.2405 64.4077
13.2471 66.9188
13.2537 69.6820
13.2603 72.7234
13.2670 76.0881
13.2736 79.8135
13.2802 83.9486
13.2868 88.5438
13.2935 93.6807
13.3001 99.4337
13.3067 105.899
13.3100 109.429
13.3134 113.181
13.3167 117.186
13.3200 121.440
13.3233 125.991
13.3266 130.835
13.3299 136.030
13.3332 141.573
13.3366 147.531
13.3399 153.906
13.3432 160.777
13.3465 168.148
13.3498 176.115
13.3531 184.686
13.3565 193.977
13.3598 204.005
13.3631 214.874
13.3664 226.675
13.3697 239.549
13.3730 253.530
13.3763 268.830
13.3796 285.499
13.3830 303.798
13.3863 323.793
13.3896 345.735
13.3912 357.540
13.3929 369.841
13.3946 382.820
13.3962 396.434
13.3979 410.719
13.3995 425.616
13.4012 441.340
13.4028 457.840
13.4045 475.154
13.4062 493.206
13.4078 512.253
13.4095 532.224
13.4111 553.154
13.4128 574.941
13.4144 597.880
13.4161 621.719
13.4178 646.768
13.4194 672.739
13.4207 693.460
13.4219 714.815
13.4232 736.797
13.4245 759.396
13.4258 782.592
13.4270 806.363
13.4283 830.678
13.4296 855.299
13.4308 880.570
13.4321 906.238
13.4334 932.237
13.4346 958.484
13.4372 1011.35
13.4397 1063.75
13.4422 1115.01
13.4448 1163.68
13.4473 1208.35
13.4499 1247.41
13.4524 1279.72
13.4549 1303.82
13.4575 1318.67
13.4600 1323.59
13.4625 1318.39
13.4651 1303.27
13.4676 1278.91
13.4702 1246.49
13.4727 1207.08
13.4752 1162.23
13.4778 1113.40
13.4803 1062.21
13.4828 1009.51
13.4854 956.564
13.4879 904.264
13.4905 853.487
13.4930 804.336
13.4955 757.364
13.4981 712.791
13.5006 670.893
13.5028 637.124
13.5049 605.185
13.5071 575.040
13.5092 546.632
13.5114 519.895
13.5136 494.753
13.5157 471.126
13.5179 448.933
13.5200 428.090
13.5222 408.517
13.5244 390.134
13.5265 372.866
13.5287 356.640
13.5308 341.388
13.5330 327.045
13.5352 313.610
13.5373 300.902
13.5395 288.932
13.5416 277.650
13.5438 267.009
13.5460 256.967
13.5481 247.484
13.5503 238.523
13.5524 230.086
13.5567 214.470
13.5611 200.448
13.5654 187.825
13.5697 176.455
13.5740 166.142
13.5783 156.785
13.5827 148.276
13.5870 140.520
13.5913 133.435
13.5956 126.949
13.5999 120.999
13.6042 115.543
13.6086 110.506
13.6129 105.859
13.6172 101.566
13.6215 97.6005
13.6258 93.9161
13.6302 90.4956
13.6345 87.3158
13.6388 84.3623
13.6431 81.6029
13.6474 79.0278
13.6517 76.6221
13.6561 74.3722
13.6647 70.2921
13.6733 66.7069
13.6820 63.5391
13.6906 60.7386
13.6992 58.2513
13.7079 56.0428
13.7165 54.0745
13.7251 52.3223
13.7338 50.7581
13.7424 49.3647
13.7511 48.1213
13.7597 47.0154
13.7683 46.0314
13.7770 45.1602
13.7856 44.3898
13.7942 43.7128
13.8115 42.6102
13.8288 41.8024
13.8460 41.2520
13.8633 40.9303
13.8806 40.8162
13.8979 40.8936
13.9151 41.1513
13.9324 41.5822
13.9497 42.1817
13.9670 42.9490
13.9842 43.8858
14.0015 44.9964
14.0188 46.2878
14.0360 47.7697
14.0533 49.4546
14.0706 51.3592
14.0879 53.5004
14.1051 55.9022
14.1224 58.5921
14.1397 61.6047
14.1569 64.9755
14.1742 68.7526
14.1915 72.9914
14.2088 77.7614
14.2174 80.3690
14.2260 83.1369
14.2347 86.0839
14.2433 89.2172
14.2519 92.5594
14.2606 96.1199
14.2692 99.9257
14.2778 103.989
14.2865 108.343
14.2951 113.003
14.3038 118.008
14.3124 123.381
14.3210 129.170
14.3297 135.403
14.3383 142.141
14.3469 149.430
14.3556 157.329
14.3642 165.896
14.3728 175.229
14.3815 185.396
14.3901 196.523
14.3987 208.702
14.4074 222.099
14.4160 236.860
14.4203 244.809
14.4247 253.172
14.4290 261.977
14.4333 271.233
14.4376 281.017
14.4419 291.343
14.4463 302.252
14.4506 313.760
14.4549 325.969
14.4592 338.902
14.4635 352.619
14.4678 367.146
14.4722 382.619
14.4765 399.081
14.4808 416.616
14.4851 435.313
14.4894 455.276
14.4938 476.616
14.4981 499.457
14.5024 523.877
14.5067 550.143
14.5110 578.369
14.5153 608.746
14.5197 641.405
14.5240 676.732
14.5283 714.919
14.5326 756.259
14.5369 800.974
14.5412 849.638
14.5456 902.565
14.5499 960.216
14.5520 990.972
14.5542 1022.96
14.5564 1056.54
14.5585 1091.65
14.5607 1128.37
14.5628 1166.79
14.5650 1207.00
14.5672 1249.10
14.5693 1293.18
14.5715 1339.13
14.5736 1387.48
14.5758 1438.15
14.5779 1491.25
14.5801 1546.89
14.5823 1605.21
14.5844 1666.33
14.5866 1730.37
14.5887 1797.16
14.5909 1867.44
14.5931 1941.02
14.5952 2018.04
14.5974 2098.60
14.5995 2182.80
14.6017 2270.73
14.6039 2362.47
14.6060 2457.59
14.6094 2614.83
14.6128 2780.85
14.6161 2956.15
14.6195 3138.87
14.6229 3328.77
14.6263 3522.83
14.6330 3914.74
14.6364 4105.31
14.6398 4285.57
14.6431 4451.40
14.6465 4596.43
14.6499 4716.19
14.6533 4805.19
14.6566 4860.14
14.6600 4878.25
14.6634 4858.77
14.6668 4802.71
14.6701 4712.23
14.6735 4591.70
14.6769 4445.22
14.6803 4278.97
14.6836 4097.40
14.6870 3906.74
14.6938 3513.88
14.7005 3129.35
14.7039 2945.91
14.7073 2771.02
14.7106 2604.47
14.7140 2447.68
14.7166 2333.57
14.7192 2225.40
14.7218 2122.63
14.7243 2025.12
14.7269 1932.71
14.7295 1845.20
14.7321 1762.39
14.7347 1684.07
14.7372 1609.72
14.7398 1539.72
14.7424 1473.53
14.7450 1410.96
14.7476 1351.79
14.7501 1295.83
14.7527 1242.89
14.7553 1192.79
14.7579 1145.18
14.7605 1100.27
14.7631 1057.71
14.7656 1017.37
14.7708 942.800
14.7760 875.580
14.7811 814.744
14.7863 759.777
14.7914 709.902
14.7966 664.547
14.8018 623.136
14.8069 585.392
14.8121 550.848
14.8173 519.167
14.8224 490.001
14.8276 463.202
14.8327 438.483
14.8379 415.640
14.8431 394.455
14.8482 374.850
14.8534 356.642
14.8586 339.704
14.8637 323.924
14.8689 309.200
14.8740 295.444
14.8792 282.573
14.8844 270.492
14.8895 259.182
14.8947 248.560
14.8998 238.572
14.9050 229.151
14.9102 220.291
14.9153 211.931
14.9205 204.036
14.9257 196.557
14.9308 189.495
14.9411 176.462
14.9515 164.717
14.9618 154.117
14.9721 144.500
14.9824 135.767
14.9928 127.798
15.0031 120.521
15.0134 113.846
15.0237 107.721
15.0341 102.081
15.0444 96.8773
15.0547 92.0615
15.0650 87.6045
15.0754 83.4639
15.0857 79.6179
15.0960 76.0325
15.1063 72.6910
15.1167 69.5660
15.1270 66.6448
15.1373 63.9048
15.1476 61.3363
15.1580 58.9208
15.1683 56.6505
15.1786 54.5102
15.1889 52.4938
15.1993 50.5902
15.2096 48.7911
15.2302 45.4756
15.2509 42.4965
15.2715 39.8098
15.2922 37.3795
15.3128 35.1719
15.3335 33.1615
15.3541 31.3255
15.3748 29.6449
15.3954 28.1013
15.4161 26.6808
15.4367 25.3705
15.4574 24.1594
15.4780 23.0376
15.4987 21.9966
15.5193 21.0287
15.5399 20.1276
15.5606 19.2865
15.5812 18.5006
15.6019 17.7651
15.6225 17.0757
15.6432 16.4287
15.6638 15.8207
15.6845 15.2485
15.7051 14.7096
15.7464 13.7208
15.7877 12.8371
15.8290 12.0440
15.8703 11.3297
15.9116 10.6838
15.9529 10.0979
15.9942 9.56471
16.0355 9.07824
16.0768 8.63299
16.1181 8.22451
16.1594 7.84889
16.2007 7.50279
16.2420 7.18305
16.2833 6.88715
16.3246 6.61281
16.3659 6.35807
16.4072 6.12101
16.4485 5.90012
16.4898 5.69400
16.5311 5.50144
16.5724 5.32121
16.6137 5.15242
16.6963 4.84542
16.7789 4.57422
16.8614 4.33383
16.9440 4.12004
17.0266 3.92945
17.1092 3.75915
17.1918 3.60677
17.2744 3.47026
17.3570 3.34791
17.4396 3.23827
17.5222 3.14011
17.6048 3.05236
17.6874 2.97416
17.7700 2.90471
17.8526 2.84339
17.9352 2.78963
18.0178 2.74299
18.1004 2.70307
18.1829 2.66959
18.2655 2.64228
18.3481 2.62098
18.4307 2.60556
18.5133 2.59596
18.5959 2.59217
18.6785 2.59424
18.7611 2.60227
18.8437 2.61646
18.9263 2.63702
19.0089 2.66429
19.0915 2.69867
19.1741 2.74064
19.2567 2.79082
19.3393 2.84994
19.4219 2.91892
19.5044 2.99880
19.5870 3.09091
19.6696 3.19680
19.7522 3.31839
19.8348 3.45800
19.9174 3.61848
20.0000 3.80337
20.0549 3.94191
20.1098 4.09470
20.1647 4.26359
20.2196 4.45067
20.2745 4.65852
20.3294 4.89009
20.3843 5.14898
20.4392 5.43953
20.4941 5.76702
20.5490 6.13773
20.5765 6.34172
20.6039 6.55962
20.6314 6.79272
20.6588 7.04247
20.6863 7.31059
20.7138 7.59872
20.7412 7.90901
20.7687 8.24382
20.7961 8.60579
20.8236 8.99798
20.8510 9.42387
20.8785 9.88746
20.9059 10.3936
20.9334 10.9472
20.9608 11.5547
20.9883 12.2235
21.0157 12.9624
21.0432 13.7810
21.0706 14.6918
21.0981 15.7091
21.1118 16.2633
21.1255 16.8509
21.1393 17.4749
21.1530 18.1376
21.1667 18.8436
21.1804 19.5955
21.1942 20.3987
21.2079 21.2567
21.2216 22.1759
21.2353 23.1610
21.2491 24.2199
21.2628 25.3586
21.2765 26.5872
21.2902 27.9135
21.3040 29.3502
21.3177 30.9078
21.3314 32.6027
21.3451 34.4504
21.3589 36.4696
21.3726 38.6808
21.3863 41.1128
21.4000 43.7919
21.4138 46.7574
21.4275 50.0465
21.4412 53.7136
21.4481 55.7046
21.4549 57.8126
21.4618 60.0502
21.4687 62.4211
21.4755 64.9398
21.4824 67.6189
21.4893 70.4764
21.4961 73.5195
21.5030 76.7693
21.5098 80.2448
21.5167 83.9730
21.5236 87.9667
21.5304 92.2582
21.5373 96.8774
21.5442 101.866
21.5510 107.248
21.5579 113.082
21.5648 119.402
21.5716 126.283
21.5785 133.771
21.5853 141.948
21.5922 150.903
21.5991 160.749
21.6059 171.576
21.6094 177.404
21.6128 183.533
21.6162 189.983
21.6197 196.778
21.6231 203.964
21.6265 211.525
21.6300 219.510
21.6334 227.952
21.6368 236.884
21.6402 246.345
21.6437 256.376
21.6471 267.023
21.6505 278.369
21.6540 290.403
21.6574 303.218
21.6608 316.880
21.6643 331.464
21.6677 347.050
21.6711 363.728
21.6746 381.599
21.6780 400.831
21.6814 421.437
21.6849 443.608
21.6883 467.496
21.6917 493.275
21.6951 521.133
21.6986 551.287
21.7020 583.973
21.7054 619.569
21.7089 658.167
21.7123 700.202
21.7157 746.048
21.7192 796.123
21.7226 850.893
21.7260 910.872
21.7277 943.087
21.7295 976.629
21.7312 1011.97
21.7329 1049.00
21.7346 1087.81
21.7363 1128.25
21.7380 1170.87
21.7398 1215.28
21.7415 1262.08
21.7432 1310.83
21.7449 1362.20
21.7466 1415.66
21.7483 1471.95
21.7500 1530.49
21.7518 1592.04
21.7535 1655.94
21.7552 1722.99
21.7569 1792.45
21.7596 1907.83
21.7623 2029.61
21.7650 2158.39
21.7677 2292.60
21.7704 2432.27
21.7731 2574.98
21.7785 2863.07
21.7812 3003.62
21.7838 3136.56
21.7865 3259.05
21.7892 3366.15
21.7919 3454.72
21.7946 3520.55
21.7973 3561.17
21.8000 3574.76
21.8027 3560.58
21.8054 3519.38
21.8081 3452.72
21.8108 3363.95
21.8135 3255.97
21.8162 3133.54
21.8189 3000.29
21.8216 2860.02
21.8269 2571.07
21.8323 2288.53
21.8350 2153.81
21.8377 2025.53
21.8404 1903.78
21.8431 1788.86
21.8459 1677.78
21.8486 1574.33
21.8514 1477.57
21.8542 1387.90
21.8569 1304.31
21.8597 1227.03
21.8625 1155.10
21.8652 1088.66
21.8680 1026.83
21.8708 969.689
21.8735 916.485
21.8763 867.271
21.8791 821.386
21.8818 778.880
21.8846 739.323
21.8873 702.477
21.8901 668.005
21.8929 635.954
21.8956 605.910
21.8984 577.920
21.9012 551.630
21.9039 527.089
21.9067 504.072
21.9094 482.464
21.9122 462.086
21.9150 442.989
21.9177 424.946
21.9205 408.004
21.9233 391.967
21.9260 376.882
21.9288 362.627
21.9316 349.144
21.9343 336.336
21.9371 324.247
21.9426 301.869
21.9481 281.692
21.9537 263.444
21.9592 246.894
21.9647 231.843
21.9703 218.119
21.9758 205.596
21.9813 194.100
21.9868 183.543
21.9924 173.828
21.9979 164.884
22.0034 156.604
22.0090 148.940
22.0145 141.831
22.0200 135.240
22.0255 129.094
22.0311 123.367
22.0366 118.022
22.0421 113.025
22.0477 108.348
22.0532 103.965
22.0587 99.8512
22.0642 95.9928
22.0698 92.3564
22.0753 88.9317
22.0808 85.7029
22.0863 82.6609
22.0974 77.0589
22.1085 72.0443
22.1195 67.5312
22.1306 63.4601
22.1416 59.7764
22.1527 56.4364
22.1637 53.3946
22.1748 50.6224
22.1859 48.0856
22.1969 45.7633
22.2080 43.6292
22.2190 41.6664
22.2301 39.8580
22.2411 38.1906
22.2522 36.6482
22.2632 35.2221
22.2743 33.8996
22.2854 32.6740
22.2964 31.5350
22.3075 30.4767
22.3185 29.4926
22.3296 28.5777
22.3406 27.7254
22.3517 26.9324
22.3738 25.5055
22.3959 24.2679
22.4180 23.1975
22.4401 22.2748
22.4623 21.4844
22.4844 20.8135
22.5065 20.2528
22.5286 19.7940
22.5507 19.4313
22.5728 19.1602
22.5949 18.9781
22.6170 18.8839
22.6392 18.8777
22.6613 18.9614
22.6834 19.1384
22.7055 19.4142
22.7276 19.7960
22.7497 20.2938
22.7718 20.9201
22.7939 21.6912
22.8050 22.1376
22.8161 22.6279
22.8271 23.1666
22.8382 23.7570
22.8492 24.4038
22.8603 25.1112
22.8713 25.8862
22.8824 26.7340
22.8935 27.6633
22.9045 28.6809
22.9156 29.7984
22.9266 31.0259
22.9377 32.3762
22.9487 33.8628
22.9598 35.5056
22.9708 37.3215
22.9819 39.3374
22.9930 41.5773
23.0040 44.0781
23.0151 46.8768
23.0261 50.0202
23.0317 51.7383
23.0372 53.5612
23.0427 55.5044
23.0482 57.5745
23.0538 59.7826
23.0593 62.1362
23.0648 64.6575
23.0704 67.3573
23.0759 70.2525
23.0814 73.3559
23.0869 76.6999
23.0925 80.3028
23.0980 84.1912
23.1035 88.3954
23.1091 92.9498
23.1146 97.8932
23.1201 103.270
23.1256 109.120
23.1312 115.523
23.1367 122.536
23.1422 130.236
23.1477 138.697
23.1533 148.056
23.1588 158.418
23.1643 169.929
23.1671 176.155
23.1699 182.732
23.1726 189.713
23.1754 197.074
23.1782 204.901
23.1809 213.170
23.1837 221.978
23.1864 231.302
23.1892 241.254
23.1920 251.809
23.1947 263.097
23.1975 275.094
23.2003 287.952
23.2030 301.647
23.2058 316.355
23.2086 332.055
23.2113 348.889
23.2141 366.959
23.2169 386.450
23.2196 407.341
23.2224 429.920
23.2251 454.168
23.2279 480.423
23.2307 508.665
23.2334 539.172
23.2348 555.337
23.2362 572.144
23.2376 589.748
23.2390 607.924
23.2403 626.824
23.2417 646.477
23.2431 667.062
23.2445 688.313
23.2459 710.402
23.2473 733.359
23.2486 757.388
23.2500 782.169
23.2514 807.898
23.2528 834.598
23.2542 862.289
23.2555 890.991
23.2569 920.716
23.2583 951.473
23.2609 1012.47
23.2635 1077.12
23.2661 1145.25
23.2687 1216.27
23.2713 1290.20
23.2739 1365.77
23.2766 1442.54
23.2792 1518.68
23.2818 1593.18
23.2844 1663.94
23.2870 1728.90
23.2896 1785.72
23.2922 1832.74
23.2948 1867.71
23.2974 1889.38
23.3000 1896.60
23.3026 1889.10
23.3052 1867.17
23.3078 1831.79
23.3104 1784.70
23.3130 1727.44
23.3156 1662.54
23.3183 1591.64
23.3209 1517.30
23.3235 1440.79
23.3261 1363.95
23.3313 1214.39
23.3339 1143.10
23.3365 1075.24
23.3391 1010.60
23.3417 949.852
23.3445 888.330
23.3473 831.247
23.3501 778.061
23.3529 728.965
23.3557 683.387
23.3585 641.414
23.3613 602.505
23.3641 566.698
23.3670 533.504
23.3698 502.940
23.3726 474.580
23.3754 448.434
23.3782 424.137
23.3810 401.698
23.3838 380.878
23.3866 361.540
23.3894 343.498
23.3922 326.767
23.3950 311.124
23.3978 296.584
23.4006 282.960
23.4034 270.269
23.4062 258.351
23.4090 247.226
23.4118 236.756
23.4146 226.962
23.4174 217.725
23.4202 209.067
23.4230 200.886
23.4258 193.202
23.4286 185.953
23.4314 179.107
23.4343 172.613
23.4371 166.493
23.4427 155.187
23.4483 145.020
23.4539 135.849
23.4595 127.552
23.4651 120.024
23.4707 113.176
23.4763 106.941
23.4819 101.230
23.4875 95.9980
23.4931 91.1939
23.4988 86.7737
23.5044 82.6991
23.5100 78.9362
23.5156 75.4552
23.5212 72.2352
23.5268 69.2416
23.5324 66.4595
23.5380 63.8705
23.5436 61.4581
23.5492 59.2076
23.5548 57.1059
23.5605 55.1410
23.5661 53.3055
23.5717 51.5833
23.5773 49.9690
23.5885 47.0335
23.5997 44.4449
23.6109 42.1601
23.6221 40.1380
23.6334 38.3500
23.6446 36.7704
23.6558 35.3790
23.6670 34.1556
23.6782 33.0876
23.6894 32.1612
23.7007 31.3682
23.7119 30.6996
23.7231 30.1503
23.7343 29.7163
23.7455 29.3954
23.7567 29.1866
23.7680 29.0911
23.7792 29.1118
23.7904 29.2534
23.8016 29.5233
23.8128 29.9308
23.8241 30.4887
23.8353 31.2123
23.8465 32.1236
23.8577 33.2480
23.8689 34.6183
23.8745 35.4083
23.8801 36.2747
23.8857 37.2274
23.8914 38.2730
23.8970 39.4204
23.9026 40.6798
23.9082 42.0630
23.9138 43.5831
23.9194 45.2554
23.9250 47.0939
23.9306 49.1253
23.9362 51.3698
23.9418 53.8543
23.9474 56.6104
23.9531 59.6746
23.9587 63.0903
23.9643 66.9080
23.9699 71.1799
23.9755 75.9922
23.9783 78.6293
23.9811 81.4231
23.9839 84.4069
23.9867 87.5742
23.9895 90.9635
23.9923 94.5683
23.9951 98.4336
23.9979 102.553
24.0007 106.980
24.0035 111.708
24.0063 116.801
24.0091 122.252
24.0119 128.114
24.0147 134.424
24.0176 141.252
24.0204 148.593
24.0232 156.551
24.0260 165.127
24.0288 174.442
24.0316 184.498
24.0344 195.398
24.0372 207.221
24.0400 220.099
24.0428 234.027
24.0456 249.198
24.0484 265.596
24.0512 283.431
24.0540 302.661
24.0568 323.418
24.0596 345.754
24.0621 367.311
24.0647 390.061
24.0672 414.124
24.0697 439.197
24.0722 465.299
24.0748 491.966
24.0773 519.056
24.0798 545.907
24.0823 572.180
24.0849 597.024
24.0874 619.922
24.0899 639.943
24.0924 656.506
24.0950 668.816
24.0975 676.438
24.1000 678.969
24.1025 676.310
24.1051 668.601
24.1076 656.130
24.1101 639.526
24.1126 619.326
24.1152 596.427
24.1177 571.400
24.1202 545.155
24.1227 518.129
24.1253 491.084
24.1278 464.256
24.1303 438.207
24.1328 412.989
24.1354 388.979
24.1379 366.101
24.1404 344.594
24.1440 316.192
24.1458 302.928
24.1476 290.366
24.1494 278.350
24.1512 266.990
24.1530 256.197
24.1548 245.946
24.1566 236.161
24.1583 226.926
24.1601 218.161
24.1619 209.842
24.1655 194.408
24.1691 180.535
24.1727 167.980
24.1763 156.667
24.1799 146.400
24.1834 137.118
24.1870 128.665
24.1906 120.994
24.1942 113.981
24.1978 107.594
24.2014 101.732
24.2050 96.3583
24.2085 91.4230
24.2121 86.8941
24.2157 82.7076
24.2193 78.8525
24.2229 75.2768
24.2265 71.9734
24.2301 68.8997
24.2336 66.0513
24.2372 63.3931
24.2408 60.9226
24.2444 58.6108
24.2480 56.4565
24.2516 54.4354
24.2551 52.5473
24.2587 50.7717
24.2623 49.1048
24.2695 46.0682
24.2767 43.3748
24.2838 40.9769
24.2910 38.8346
24.2982 36.9147
24.3053 35.1890
24.3125 33.6338
24.3197 32.2270
24.3269 30.9554
24.3340 29.8021
24.3412 28.7543
24.3484 27.8011
24.3555 26.9328
24.3627 26.1413
24.3699 25.4192
24.3771 24.7593
24.3842 24.1579
24.3914 23.6091
24.3986 23.1087
24.4129 22.2378
24.4273 21.5199
24.4416 20.9344
24.4559 20.4665
24.4703 20.1031
24.4846 19.8348
24.4990 19.6539
24.5133 19.5552
24.5277 19.5346
24.5420 19.5897
24.5563 19.7193
24.5707 19.9232
24.5850 20.2028
24.5994 20.5603
24.6137 20.9996
24.6280 21.5250
24.6424 22.1430
24.6567 22.8613
24.6711 23.6904
24.6854 24.6407
24.6998 25.7270
24.7141 26.9667
24.7284 28.3817
24.7428 29.9953
24.7500 30.8864
24.7571 31.8394
24.7643 32.8594
24.7715 33.9518
24.7786 35.1244
24.7858 36.3808
24.7930 37.7302
24.8002 39.1809
24.8073 40.7426
24.8145 42.4259
24.8217 44.2427
24.8288 46.2068
24.8360 48.3364
24.8432 50.6432
24.8504 53.1497
24.8575 55.8787
24.8647 58.8562
24.8719 62.1119
24.8790 65.6803
24.8862 69.6013
24.8934 73.9278
24.9006 78.7019
24.9077 83.9930
24.9149 89.8763
24.9221 96.4407
24.9257 100.016
24.9292 103.792
24.9328 107.807
24.9364 112.058
24.9400 116.586
24.9436 121.390
24.9472 126.520
24.9508 131.990
24.9543 137.829
24.9579 144.054
24.9615 150.734
24.9651 157.874
24.9687 165.557
24.9723 173.791
24.9759 182.678
24.9794 192.232
24.9830 202.575
24.9866 213.728
24.9902 225.844
24.9938 238.952
24.9974 253.240
25.0009 268.753
25.0045 285.722
25.0081 304.212
25.0099 314.158
25.0117 324.511
25.0135 335.352
25.0153 346.709
25.0171 358.680
25.0189 371.164
25.0207 384.258
25.0225 398.000
25.0243 412.507
25.0260 427.660
25.0278 443.579
25.0296 460.307
25.0314 477.991
25.0332 496.485
25.0350 515.934
25.0368 536.391
25.0386 558.035
25.0404 580.680
25.0422 604.501
25.0440 629.558
25.0458 656.059
25.0476 683.768
25.0493 712.884
25.0511 743.461
25.0529 775.732
25.0547 809.379
25.0565 844.612
25.0583 881.454
25.0609 938.070
25.0635 998.072
25.0661 1061.31
25.0687 1127.22
25.0713 1195.84
25.0739 1265.98
25.0766 1337.24
25.0792 1407.91
25.0818 1477.06
25.0844 1542.74
25.0870 1603.04
25.0896 1655.78
25.0922 1699.42
25.0948 1731.88
25.0974 1751.99
25.1000 1758.69
25.1026 1751.72
25.1052 1731.36
25.1078 1698.51
25.1104 1654.79
25.1130 1601.63
25.1156 1541.38
25.1183 1475.55
25.1209 1406.54
25.1235 1335.51
25.1261 1264.17
25.1313 1125.30
25.1339 1059.12
25.1365 996.110
25.1391 936.098
25.1417 879.691
25.1447 818.066
25.1478 761.039
25.1508 708.445
25.1539 660.052
25.1569 615.594
25.1599 574.787
25.1630 537.345
25.1660 502.990
25.1691 471.457
25.1721 442.496
25.1751 415.877
25.1782 391.386
25.1812 368.829
25.1843 348.030
25.1873 328.829
25.1903 311.079
25.1934 294.652
25.1964 279.427
25.1995 265.299
25.2025 252.172
25.2055 239.959
25.2086 228.581
25.2116 217.969
25.2147 208.059
25.2177 198.792
25.2207 190.117
25.2238 181.987
25.2268 174.358
25.2299 167.192
25.2329 160.453
25.2359 154.109
25.2390 148.151
25.2420 142.511
25.2451 137.186
25.2481 132.153
25.2511 127.393
25.2572 118.614
25.2633 110.717
25.2694 103.590
25.2755 97.1375
25.2815 91.2790
25.2876 85.9447
25.2937 81.0748
25.2998 76.6177
25.3059 72.5286
25.3119 68.7686
25.3180 65.3036
25.3241 62.1039
25.3302 59.1434
25.3362 56.4034
25.3423 53.8545
25.3484 51.4834
25.3545 49.2741
25.3606 47.2122
25.3666 45.2850
25.3727 43.4812
25.3788 41.7904
25.3849 40.2035
25.3910 38.7123
25.3970 37.3091
25.4031 35.9873
25.4092 34.7406
25.4214 32.4512
25.4335 30.4037
25.4457 28.5622
25.4578 26.9017
25.4700 25.3991
25.4821 24.0363
25.4943 22.7946
25.5065 21.6609
25.5186 20.6233
25.5308 19.6720
25.5429 18.7963
25.5551 17.9891
25.5673 17.2436
25.5794 16.5536
25.5916 15.9140
25.6037 15.3199
25.6159 14.7671
25.6280 14.2525
25.6402 13.7719
25.6524 13.3227
25.6645 12.9024
25.6767 12.5090
25.7010 11.7926
25.7253 11.1597
25.7496 10.5978
25.7739 10.0974
25.7983 9.65028
25.8226 9.24990
25.8469 8.89016
25.8712 8.56654
25.8955 8.27466
25.9198 8.01127
25.9442 7.77314
25.9685 7.55780
25.9928 7.36302
26.0171 7.18693
26.0414 7.02771
26.0657 6.88402
26.1144 6.63802
26.1630 6.44045
26.2116 6.28489
26.2603 6.16629
26.3089 6.08082
26.3575 6.02559
26.4062 5.99850
26.4548 5.99803
26.5034 6.02328
26.5521 6.07382
26.6007 6.14968
26.6493 6.25135
26.6980 6.37976
26.7466 6.53636
26.7952 6.72298
26.8439 6.94219
26.8925 7.19701
26.9411 7.49140
26.9898 7.82999
27.0384 8.21868
27.0870 8.66459
27.1357 9.17661
27.1600 9.46066
27.1843 9.76534
27.2086 10.0927
27.2329 10.4443
27.2572 10.8228
27.2816 11.2303
27.3059 11.6699
27.3302 12.1446
27.3545 12.6579
27.3788 13.2137
27.4031 13.8170
27.4275 14.4725
27.4518 15.1868
27.4761 15.9660
27.5004 16.8190
27.5247 17.7544
27.5490 18.7831
27.5734 19.9170
27.5977 21.1718
27.6220 22.5638
27.6463 24.1149
27.6706 25.8482
27.6828 26.7929
27.6949 27.7949
27.7071 28.8589
27.7193 29.9902
27.7314 31.1944
27.7436 32.4779
27.7557 33.8477
27.7679 35.3106
27.7800 36.8777
27.7922 38.5576
27.8044 40.3614
27.8165 42.3000
27.8287 44.3903
27.8408 46.6468
27.8530 49.0875
27.8651 51.7306
27.8773 54.6038
27.8895 57.7319
27.9016 61.1458
27.9138 64.8811
27.9259 68.9794
27.9320 71.1793
27.9381 73.4887
27.9442 75.9149
27.9503 78.4658
27.9563 81.1501
27.9624 83.9723
27.9685 86.9521
27.9746 90.0960
27.9807 93.4163
27.9867 96.9262
27.9928 100.641
27.9989 104.575
28.0050 108.748
28.0110 113.170
28.0171 117.878
28.0232 122.889
28.0293 128.228
28.0354 133.925
28.0414 140.012
28.0475 146.525
28.0536 153.505
28.0597 160.983
28.0658 169.034
28.0718 177.704
28.0779 187.056
28.0840 197.164
28.0901 208.108
28.0962 219.983
28.1022 232.895
28.1083 246.966
28.1114 254.478
28.1144 262.335
28.1174 270.555
28.1205 279.163
28.1235 288.182
28.1266 297.637
28.1296 307.557
28.1326 317.972
28.1357 328.915
28.1387 340.420
28.1418 352.526
28.1448 365.274
28.1478 378.708
28.1509 392.877
28.1539 407.834
28.1569 423.582
28.1600 440.288
28.1630 457.968
28.1661 476.698
28.1691 496.556
28.1721 517.633
28.1752 540.023
28.1782 563.833
28.1813 589.178
28.1843 616.184
28.1873 644.992
28.1904 675.753
28.1934 708.634
28.1965 743.820
28.1995 781.513
28.2025 821.935
28.2056 865.181
28.2086 911.804
28.2117 961.959
28.2147 1015.97
28.2177 1074.18
28.2208 1136.98
28.2238 1204.77
28.2269 1278.01
28.2299 1357.18
28.2329 1442.77
28.2360 1535.33
28.2390 1635.40
28.2421 1743.53
28.2451 1860.26
28.2481 1986.10
28.2512 2121.45
28.2542 2266.12
28.2571 2412.24
28.2599 2566.52
28.2628 2729.05
28.2657 2899.07
28.2685 3076.00
28.2714 3256.83
28.2771 3621.92
28.2800 3800.02
28.2828 3968.52
28.2857 4123.22
28.2886 4259.04
28.2914 4371.35
28.2943 4454.86
28.2971 4506.41
28.3000 4523.66
28.3029 4505.71
28.3057 4453.50
28.3086 4369.36
28.3115 4256.91
28.3143 4120.14
28.3172 3965.00
28.3200 3796.15
28.3229 3618.39
28.3286 3252.30
28.3344 2894.98
28.3372 2724.33
28.3401 2561.81
28.3429 2407.56
28.3458 2261.98
28.3483 2141.94
28.3508 2029.01
28.3533 1922.14
28.3558 1821.98
28.3583 1727.47
28.3608 1639.09
28.3633 1556.15
28.3658 1478.34
28.3683 1405.08
28.3707 1336.66
28.3732 1272.47
28.3757 1212.25
28.3782 1155.52
28.3807 1102.46
28.3832 1052.62
28.3857 1005.77
28.3882 961.536
28.3907 920.081
28.3932 880.891
28.3957 844.112
28.3982 809.294
28.4007 776.572
28.4032 745.670
28.4056 716.467
28.4081 688.742
28.4106 662.610
28.4131 637.861
28.4156 614.404
28.4206 570.960
28.4256 531.856
28.4306 496.419
28.4356 464.289
28.4406 435.083
28.4455 408.519
28.4505 384.205
28.4555 361.988
28.4605 341.560
28.4655 322.814
28.4705 305.506
28.4755 289.529
28.4804 274.753
28.4854 261.089
28.4904 248.380
28.4954 236.589
28.5004 225.587
28.5054 215.346
28.5104 205.762
28.5153 196.799
28.5203 188.404
28.5253 180.547
28.5303 173.154
28.5353 166.218
28.5403 159.676
28.5453 153.523
28.5502 147.707
28.5552 142.215
28.5602 137.023
28.5652 132.121
28.5752 123.065
28.5851 114.911
28.5951 107.537
28.6051 100.861
28.6151 94.7919
28.6250 89.2585
28.6350 84.1954
28.6450 79.5601
28.6550 75.3018
28.6649 71.3810
28.6749 67.7596
28.6849 64.4146
28.6948 61.3157
28.7048 58.4394
28.7148 55.7624
28.7248 53.2718
28.7347 50.9483
28.7447 48.7775
28.7547 46.7443
28.7647 44.8411
28.7746 43.0554
28.7846 41.3778
28.7946 39.7981
28.8045 38.3119
28.8145 36.9106
28.8245 35.5879
28.8444 33.1546
28.8644 30.9744
28.8843 29.0116
28.9043 27.2401
28.9242 25.6345
28.9442 24.1761
28.9641 22.8470
28.9840 21.6324
29.0040 20.5192
29.0239 19.4973
29.0439 18.5564
29.0638 17.6889
29.0838 16.8867
29.1037 16.1443
29.1237 15.4552
29.1436 14.8152
29.1635 14.2191
29.1835 13.6637
29.2034 13.1450
29.2234 12.6602
29.2433 12.2061
29.2633 11.7807
29.2832 11.3815
29.3031 11.0064
29.3430 10.3211
29.3829 9.71236
29.4228 9.16961
29.4627 8.68407
29.5026 8.24839
29.5425 7.85641
29.5824 7.50287
29.6223 7.18342
29.6621 6.89408
29.7020 6.63166
29.7419 6.39336
29.7818 6.17673
29.8217 5.97966
29.8616 5.80030
29.9015 5.63703
29.9414 5.48845
29.9813 5.35331
30.0212 5.23053
30.0610 5.11914
30.1009 5.01829
30.1807 4.84530
30.2605 4.70657
30.3403 4.59815
30.4200 4.51702
30.4998 4.46086
30.5796 4.42796
30.6594 4.41710
30.7392 4.42751
30.8189 4.45885
30.8987 4.51111
30.9785 4.58472
31.0583 4.68046
31.1380 4.79950
31.2178 4.94348
31.2976 5.11452
31.3774 5.31531
31.4572 5.54923
31.5369 5.82043
31.6167 6.13416
31.6566 6.30892
31.6965 6.49682
31.7364 6.69892
31.7763 6.91640
31.8162 7.15055
31.8560 7.40280
31.8959 7.67493
31.9358 7.96874
31.9757 8.28635
32.0156 8.63014
32.0555 9.00282
32.0954 9.40750
32.1353 9.84771
32.1752 10.3274
32.2150 10.8515
32.2549 11.4252
32.2948 12.0550
32.3347 12.7480
32.3746 13.5131
32.4145 14.3602
32.4544 15.3016
32.4943 16.3516
32.5142 16.9228
32.5342 17.5276
32.5541 18.1695
32.5741 18.8507
32.5940 19.5754
32.6139 20.3465
32.6339 21.1690
32.6538 22.0466
32.6738 22.9855
32.6937 23.9905
32.7137 25.0691
32.7336 26.2275
32.7536 27.4754
32.7735 28.8207
32.7934 30.2749
32.8134 31.8501
32.8333 33.5613
32.8433 34.4722
32.8533 35.4230
32.8633 36.4174
32.8732 37.4557
32.8832 38.5420
32.8932 39.6791
32.9031 40.8716
32.9131 42.1207
32.9231 43.4313
32.9331 44.8077
32.9430 46.2559
32.9530 47.7780
32.9630 49.3807
32.9729 51.0699
32.9829 52.8541
32.9879 53.7833
32.9929 54.7365
32.9979 55.7187
33.0029 56.7268
33.0079 57.7661
33.0128 58.8335
33.0178 59.9346
33.0228 61.0684
33.0278 62.2362
33.0328 63.4372
33.0378 64.6775
33.0428 65.9537
33.0477 67.2726
33.0527 68.6307
33.0577 70.0351
33.0627 71.4851
33.0677 72.9828
33.0727 74.5272
33.0777 76.1267
33.0826 77.7772
33.0876 79.4880
33.0926 81.2549
33.0976 83.0878
33.1026 84.9823
33.1076 86.9493
33.1126 88.9843
33.1175 91.0990
33.1225 93.2889
33.1275 95.5667
33.1325 97.9278
33.1375 100.386
33.1425 102.942
33.1475 105.601
33.1524 108.364
33.1574 111.246
33.1624 114.243
33.1674 117.374
33.1724 120.634
33.1774 124.045
33.1824 127.607
33.1874 131.331
33.1923 135.219
33.1973 139.296
33.2023 143.559
33.2073 148.036
33.2123 152.724
33.2173 157.656
33.2223 162.839
33.2272 168.290
33.2322 174.016
33.2372 180.061
33.2422 186.423
33.2472 193.153
33.2522 200.249
33.2572 207.770
33.2621 215.734
33.2671 224.176
33.2721 233.117
33.2771 242.637
33.2821 252.743
33.2871 263.530
33.2921 275.012
33.2970 287.299
33.3020 300.442
33.3070 314.521
33.3120 329.595
33.3170 345.825
33.3220 363.257
33.3270 382.090
33.3319 402.389
33.3369 424.399
33.3419 448.264
33.3469 474.192
33.3519 502.361
33.3544 517.449
33.3569 533.154
33.3594 549.576
33.3619 566.757
33.3644 584.816
33.3669 603.657
33.3693 623.405
33.3718 644.114
33.3743 665.934
33.3768 688.757
33.3793 712.834
33.3818 738.050
33.3843 764.686
33.3868 792.617
33.3893 822.040
33.3918 853.054
33.3943 885.903
33.3968 920.438
33.3993 956.913
33.4018 995.462
33.4043 1036.40
33.4067 1079.54
33.4092 1125.22
33.4117 1173.62
33.4142 1225.13
33.4167 1279.55
33.4192 1337.29
33.4217 1398.57
33.4242 1463.91
33.4267 1533.04
33.4292 1606.48
33.4317 1684.49
33.4342 1767.70
33.4367 1855.73
33.4391 1949.18
33.4416 2048.31
33.4441 2153.83
33.4466 2265.11
33.4491 2382.75
33.4516 2506.86
33.4546 2666.69
33.4577 2835.47
33.4607 3013.87
33.4637 3199.89
33.4667 3393.43
33.4698 3591.30
33.4758 3991.54
33.4788 4186.50
33.4819 4371.05
33.4849 4541.12
33.4879 4690.03
33.4909 4813.29
33.4940 4905.17
33.4970 4962.32
33.5000 4981.83
33.5030 4962.94
33.5061 4906.67
33.5091 4815.23
33.5121 4693.16
33.5151 4544.62
33.5182 4376.05
33.5212 4191.90
33.5242 3998.67
33.5303 3600.82
33.5363 3212.02
33.5393 3026.77
33.5424 2850.38
33.5454 2682.51
33.5484 2524.70
33.5508 2405.67
33.5532 2293.18
33.5556 2186.63
33.5580 2085.85
33.5604 1990.25
33.5628 1900.41
33.5652 1815.67
33.5676 1735.79
33.5700 1660.20
33.5724 1589.29
33.5748 1522.48
33.5772 1459.53
33.5796 1399.99
33.5820 1344.11
33.5844 1291.44
33.5868 1241.77
33.5893 1194.75
33.5917 1150.56
33.5941 1108.86
33.5965 1069.49
33.6013 997.027
33.6061 932.422
33.6109 874.499
33.6157 822.713
33.6205 776.164
33.6253 734.455
33.6301 696.899
33.6349 663.210
33.6397 632.861
33.6445 605.646
33.6493 581.163
33.6541 559.263
33.6589 539.639
33.6637 522.185
33.6685 506.667
33.6733 493.013
33.6781 481.048
33.6829 470.723
33.6878 461.913
33.6926 454.587
33.6974 448.676
33.7022 444.139
33.7070 440.946
33.7118 439.099
33.7166 438.588
33.7214 439.430
33.7262 441.653
33.7310 445.288
33.7358 450.405
33.7406 457.054
33.7454 465.349
33.7502 475.365
33.7550 487.272
33.7598 501.175
33.7646 517.315
33.7694 535.839
33.7742 557.077
33.7790 581.238
33.7838 608.770
33.7886 639.966
33.7935 675.433
33.7983 715.583
33.8031 761.241
33.8055 786.287
33.8079 812.983
33.8103 841.565
33.8127 871.923
33.8151 904.308
33.8175 938.864
33.8199 975.907
33.8223 1015.30
33.8247 1057.37
33.8271 1102.31
33.8295 1150.53
33.8319 1201.85
33.8343 1256.70
33.8367 1315.29
33.8391 1378.16
33.8415 1445.03
33.8439 1516.39
33.8463 1592.50
33.8487 1673.58
33.8511 1759.84
33.8535 1851.44
33.8559 1948.51
33.8587 2066.93
33.8614 2192.52
33.8642 2324.93
33.8669 2463.04
33.8697 2606.83
33.8724 2753.84
33.8780 3051.27
33.8807 3196.13
33.8835 3333.63
33.8862 3459.78
33.8890 3570.02
33.8917 3661.05
33.8945 3728.52
33.8973 3769.96
33.9000 3783.16
33.9028 3767.57
33.9055 3723.75
33.9083 3653.64
33.9110 3560.59
33.9138 3447.64
33.9165 3319.69
33.9193 3180.00
33.9221 3033.52
33.9276 2731.36
33.9331 2436.47
33.9358 2295.84
33.9386 2161.90
33.9414 2034.29
33.9441 1914.27
33.9474 1778.19
33.9508 1652.94
33.9541 1537.38
33.9574 1431.64
33.9608 1334.47
33.9641 1245.77
33.9675 1164.35
33.9708 1090.04
33.9741 1021.78
33.9775 959.406
33.9808 902.012
33.9841 849.460
33.9875 800.990
33.9908 756.497
33.9941 715.352
33.9975 677.477
34.0008 642.353
34.0041 609.928
34.0075 579.773
34.0108 551.855
34.0141 525.817
34.0175 501.644
34.0208 479.036
34.0241 457.990
34.0275 438.255
34.0308 419.836
34.0342 402.520
34.0375 386.319
34.0408 371.051
34.0442 356.732
34.0475 343.246
34.0508 330.532
34.0542 318.496
34.0575 307.160
34.0642 286.258
34.0708 267.492
34.0775 250.583
34.0842 235.293
34.0908 221.422
34.0975 208.799
34.1042 197.277
34.1108 186.733
34.1175 177.056
34.1242 168.154
34.1309 159.944
34.1375 152.357
34.1442 145.329
34.1509 138.805
34.1575 132.748
34.1642 127.096
34.1709 121.820
34.1775 116.888
34.1842 112.269
34.1909 107.937
34.1975 103.868
34.2042 100.041
34.2109 96.4354
34.2176 93.0354
34.2242 89.8247
34.2376 83.9158
34.2509 78.6101
34.2642 73.8295
34.2776 69.4987
34.2909 65.5642
34.3043 61.9776
34.3176 58.6979
34.3309 55.6899
34.3443 52.9235
34.3576 50.3727
34.3709 48.0167
34.3843 45.8323
34.3976 43.8042
34.4110 41.9174
34.4243 40.1586
34.4376 38.5161
34.4510 36.9796
34.4643 35.5400
34.4777 34.1898
34.4910 32.9199
34.5043 31.7246
34.5177 30.5981
34.5310 29.5350
34.5577 27.5804
34.5844 25.8280
34.6110 24.2492
34.6377 22.8217
34.6644 21.5264
34.6911 20.3476
34.7178 19.2706
34.7444 18.2843
34.7711 17.3786
34.7978 16.5452
34.8245 15.7759
34.8511 15.0645
34.8778 14.4053
34.9045 13.7936
34.9312 13.2245
34.9579 12.6944
34.9845 12.1997
35.0112 11.7376
35.0379 11.3051
35.0646 10.8999
35.0912 10.5197
35.1179 10.1628
35.1446 9.82714
35.1713 9.51126
35.2246 8.93331
35.2780 8.41877
35.3313 7.95963
35.3847 7.54890
35.4380 7.18104
35.4914 6.85119
35.5448 6.55548
35.5981 6.29052
35.6515 6.05356
35.7048 5.84224
35.7582 5.65478
35.8115 5.48959
35.8649 5.34559
35.9182 5.22189
35.9716 5.11803
36.0249 5.03380
36.0783 4.96941
36.1317 4.92538
36.1850 4.90274
36.2384 4.90299
36.2917 4.92830
36.3451 4.98164
36.3984 5.06697
36.4518 5.18969
36.4785 5.26722
36.5051 5.35693
36.5318 5.46018
36.5585 5.57845
36.5852 5.71353
36.6118 5.86743
36.6385 6.04275
36.6652 6.24235
36.6919 6.46975
36.7186 6.72902
36.7452 7.02545
36.7719 7.36510
36.7986 7.75556
36.8119 7.97268
36.8253 8.20599
36.8386 8.45738
36.8519 8.72839
36.8653 9.02098
36.8786 9.33731
36.8920 9.67988
36.9053 10.0515
36.9186 10.4553
36.9320 10.8947
36.9453 11.3744
36.9587 11.8990
36.9720 12.4741
36.9853 13.1061
36.9987 13.8025
37.0120 14.5722
37.0254 15.4255
37.0387 16.3739
37.0520 17.4336
37.0654 18.6213
37.0720 19.2696
37.0787 19.9581
37.0854 20.6902
37.0920 21.4696
37.0987 22.3004
37.1054 23.1871
37.1121 24.1349
37.1187 25.1493
37.1254 26.2367
37.1321 27.4042
37.1387 28.6596
37.1454 30.0099
37.1521 31.4691
37.1587 33.0468
37.1654 34.7560
37.1721 36.6114
37.1787 38.6300
37.1854 40.8311
37.1921 43.2371
37.1988 45.8738
37.2054 48.7710
37.2121 51.9638
37.2188 55.4927
37.2254 59.4057
37.2321 63.7592
37.2354 66.1254
37.2388 68.6204
37.2421 71.2698
37.2454 74.0690
37.2488 77.0383
37.2521 80.1912
37.2554 83.5531
37.2588 87.1204
37.2621 90.9329
37.2654 94.9880
37.2688 99.3322
37.2721 103.964
37.2755 108.939
37.2788 114.258
37.2821 119.987
37.2855 126.128
37.2888 132.761
37.2921 139.893
37.2955 147.619
37.2988 155.952
37.3021 164.979
37.3055 174.774
37.3088 185.453
37.3121 197.043
37.3155 209.719
37.3188 223.521
37.3221 238.663
37.3255 255.198
37.3288 273.388
37.3321 293.303
37.3355 315.258
37.3388 339.334
37.3405 352.300
37.3421 365.903
37.3438 380.171
37.3455 395.043
37.3471 410.729
37.3488 427.171
37.3505 444.397
37.3521 462.324
37.3538 481.193
37.3555 500.798
37.3571 521.393
37.3588 542.741
37.3614 577.664
37.3640 614.530
37.3665 653.532
37.3691 694.186
37.3717 736.518
37.3743 779.783
37.3768 823.747
37.3794 867.343
37.3820 910.014
37.3846 950.385
37.3871 987.606
37.3897 1020.17
37.3923 1047.12
37.3949 1067.17
37.3974 1079.60
37.4000 1083.77
37.4026 1079.49
37.4052 1067.01
37.4077 1046.79
37.4103 1019.86
37.4129 987.101
37.4155 949.960
37.4180 909.377
37.4206 866.826
37.4232 823.024
37.4258 779.202
37.4309 693.565
37.4335 652.744
37.4361 613.888
37.4386 576.877
37.4412 542.091
37.4432 516.353
37.4452 491.895
37.4472 468.695
37.4492 446.719
37.4513 425.925
37.4533 406.267
37.4553 387.694
37.4573 370.238
37.4593 353.673
37.4613 338.035
37.4633 323.273
37.4653 309.336
37.4673 296.176
37.4693 283.746
37.4713 272.003
37.4733 260.956
37.4754 250.458
37.4774 240.527
37.4794 231.127
37.4814 222.226
37.4834 213.793
37.4854 205.799
37.4894 191.055
37.4934 177.726
37.4975 165.679
37.5015 154.765
37.5055 144.880
37.5095 135.859
37.5135 127.632
37.5175 120.111
37.5216 113.238
37.5256 106.912
37.5296 101.095
37.5336 95.7336
37.5376 90.7958
37.5416 86.2169
37.5457 81.9746
37.5497 78.0374
37.5537 74.3863
37.5577 70.9783
37.5617 67.8007
37.5658 64.8335
37.5698 62.0657
37.5738 59.4675
37.5778 57.0315
37.5818 54.7448
37.5858 52.6008
37.5899 50.5783
37.5939 48.6729
37.5979 46.8761
37.6019 45.1839
37.6099 42.0640
37.6180 39.2704
37.6260 36.7534
37.6340 34.4835
37.6421 32.4248
37.6501 30.5566
37.6582 28.8522
37.6662 27.2968
37.6742 25.8703
37.6823 24.5620
37.6903 23.3564
37.6983 22.2459
37.7064 21.2182
37.7144 20.2676
37.7224 19.3845
37.7305 18.5647
37.7385 17.8005
37.7465 17.0886
37.7546 16.4229
37.7626 15.8009
37.7706 15.2176
37.7787 14.6710
37.7867 14.1570
37.7947 13.6741
37.8108 12.7903
37.8269 12.0031
37.8430 11.2990
37.8590 10.6667
37.8751 10.0968
37.8912 9.58140
37.9072 9.11381
37.9233 8.68831
37.9394 8.30003
37.9554 7.94499
37.9715 7.61913
37.9876 7.31956
38.0036 7.04355
38.0197 6.78872
38.0358 6.55299
38.0519 6.33452
38.0679 6.13170
38.0840 5.94311
38.1001 5.76746
38.1161 5.60363
38.1483 5.30753
38.1804 5.04793
38.2125 4.81938
38.2447 4.61724
38.2768 4.43787
38.3090 4.27824
38.3411 4.13579
38.3732 4.00840
38.4054 3.89429
38.4375 3.79193
38.4697 3.70006
38.5018 3.61752
38.5339 3.54340
38.5982 3.41729
38.6625 3.31643
38.7268 3.23686
38.7911 3.17557
38.8553 3.13028
38.9196 3.09924
38.9839 3.08117
39.0482 3.07510
39.1124 3.08037
39.1767 3.09657
39.2410 3.12349
39.3053 3.16112
39.3696 3.20963
39.4338 3.26938
39.4981 3.34091
39.5624 3.42498
39.6267 3.52254
39.6909 3.63480
39.7552 3.76325
39.8195 3.90972
39.8838 4.07644
39.9481 4.26610
40.0123 4.48199
40.0766 4.72823
40.1409 5.00976
40.1730 5.16564
40.2052 5.33278
40.2373 5.51218
40.2694 5.70493
40.3016 5.91244
40.3337 6.13608
40.3659 6.37751
40.3980 6.63857
40.4301 6.92140
40.4623 7.22840
40.4944 7.56236
40.5266 7.92635
40.5587 8.32429
40.5908 8.76036
40.6230 9.23955
40.6551 9.76771
40.6873 10.3518
40.7194 10.9998
40.7515 11.7217
40.7837 12.5290
40.7997 12.9689
40.8158 13.4358
40.8319 13.9317
40.8480 14.4592
40.8640 15.0211
40.8801 15.6203
40.8962 16.2604
40.9122 16.9450
40.9283 17.6786
40.9444 18.4658
40.9604 19.3121
40.9765 20.2236
40.9926 21.2071
41.0087 22.2704
41.0247 23.4226
41.0408 24.6730
41.0569 26.0349
41.0729 27.5210
41.0890 29.1469
41.1051 30.9309
41.1211 32.8941
41.1372 35.0615
41.1533 37.4624
41.1693 40.1315
41.1774 41.5803
41.1854 43.1105
41.1935 44.7324
41.2015 46.4491
41.2095 48.2729
41.2176 50.2077
41.2256 52.2682
41.2336 54.4597
41.2417 56.7995
41.2497 59.2950
41.2577 61.9670
41.2658 64.8253
41.2738 67.8952
41.2818 71.1896
41.2899 74.7355
41.2979 78.5589
41.3059 82.6947
41.3140 87.1661
41.3220 92.0228
41.3300 97.2964
41.3381 103.050
41.3461 109.328
41.3541 116.212
41.3622 123.762
41.3702 132.088
41.3782 141.275
41.3823 146.240
41.3863 151.471
41.3903 156.987
41.3943 162.795
41.3983 168.947
41.4024 175.452
41.4064 182.339
41.4104 189.618
41.4144 197.358
41.4184 205.578
41.4224 214.317
41.4265 223.595
41.4305 233.506
41.4345 244.081
41.4385 255.379
41.4425 267.435
41.4465 280.381
41.4506 294.269
41.4546 309.190
41.4586 325.203
41.4626 342.502
41.4666 361.174
41.4707 381.362
41.4747 403.171
41.4787 426.889
41.4827 452.670
41.4867 480.743
41.4907 511.292
41.4948 544.764
41.4988 581.425
41.5028 621.655
41.5048 643.242
41.5068 665.772
41.5088 689.536
41.5108 714.489
41.5128 740.703
41.5148 768.255
41.5169 797.225
41.5189 827.699
41.5209 859.768
41.5229 893.355
41.5249 928.896
41.5269 966.335
41.5289 1005.78
41.5309 1047.36
41.5329 1091.17
41.5349 1137.36
41.5369 1186.05
41.5389 1237.11
41.5410 1291.17
41.5430 1348.12
41.5450 1408.10
41.5470 1470.89
41.5490 1537.24
41.5510 1606.93
41.5530 1680.05
41.5550 1756.26
41.5578 1869.59
41.5606 1989.27
41.5634 2115.37
41.5663 2247.30
41.5691 2384.63
41.5719 2525.01
41.5775 2808.52
41.5803 2946.89
41.5831 3077.81
41.5859 3198.05
41.5888 3303.65
41.5916 3391.00
41.5944 3455.97
41.5972 3496.11
41.6000 3509.61
41.6028 3495.74
41.6056 3455.24
41.6084 3389.93
41.6113 3302.61
41.6141 3196.40
41.6169 3075.94
41.6197 2944.83
41.6225 2806.83
41.6281 2522.64
41.6338 2245.36
41.6366 2112.95
41.6394 1986.87
41.6422 1867.23
41.6450 1754.34
41.6480 1642.80
41.6509 1539.10
41.6539 1442.31
41.6568 1352.77
41.6598 1269.48
41.6627 1192.61
41.6657 1121.23
41.6686 1055.39
41.6716 994.250
41.6746 937.841
41.6775 885.415
41.6805 836.990
41.6834 791.922
41.6864 750.227
41.6893 711.480
41.6923 675.440
41.6952 641.774
41.6982 610.505
41.7011 581.235
41.7041 553.993
41.7071 528.438
41.7100 504.604
41.7130 482.199
41.7159 461.259
41.7189 441.534
41.7218 423.061
41.7248 405.626
41.7277 389.264
41.7307 373.792
41.7336 359.246
41.7366 345.509
41.7395 332.526
41.7425 320.203
41.7455 308.577
41.7514 287.077
41.7573 267.713
41.7632 250.219
41.7691 234.367
41.7750 219.964
41.7809 206.842
41.7868 194.875
41.7927 183.899
41.7986 173.827
41.8045 164.563
41.8104 156.039
41.8164 148.153
41.8223 140.857
41.8282 134.093
41.8341 127.824
41.8400 121.982
41.8459 116.540
41.8518 111.462
41.8577 106.718
41.8636 102.278
41.8695 98.1189
41.8754 94.2167
41.8813 90.5572
41.8873 87.1096
41.8932 83.8637
41.8991 80.8041
41.9050 77.9220
41.9168 72.6166
41.9286 67.8692
41.9404 63.5985
41.9522 59.7472
41.9641 56.2634
41.9759 53.1055
41.9877 50.2302
41.9995 47.6103
42.0113 45.2133
42.0231 43.0193
42.0350 41.0036
42.0468 39.1499
42.0586 37.4421
42.0704 35.8676
42.0822 34.4112
42.0940 33.0647
42.1059 31.8161
42.1177 30.6589
42.1295 29.5835
42.1413 28.5843
42.1531 27.6550
42.1649 26.7911
42.1768 25.9861
42.1886 25.2370
42.2122 23.8888
42.2358 22.7190
42.2595 21.7066
42.2831 20.8331
42.3067 20.0840
42.3304 19.4473
42.3540 18.9140
42.3776 18.4764
42.4013 18.1288
42.4249 17.8671
42.4485 17.6889
42.4722 17.5928
42.4958 17.5792
42.5194 17.6497
42.5431 17.8076
42.5667 18.0577
42.5903 18.4071
42.6140 18.8652
42.6376 19.4436
42.6612 20.1578
42.6730 20.5719
42.6849 21.0273
42.6967 21.5282
42.7085 22.0777
42.7203 22.6802
42.7321 23.3398
42.7439 24.0631
42.7558 24.8549
42.7676 25.7237
42.7794 26.6760
42.7912 27.7225
42.8030 28.8732
42.8148 30.1402
42.8267 31.5364
42.8385 33.0808
42.8503 34.7898
42.8621 36.6889
42.8739 38.8015
42.8857 41.1627
42.8976 43.8086
42.9094 46.7841
42.9153 48.4122
42.9212 50.1409
42.9271 51.9849
42.9330 53.9509
42.9389 56.0495
42.9448 58.2886
42.9507 60.6890
42.9566 63.2616
42.9625 66.0229
42.9684 68.9861
42.9744 72.1819
42.9803 75.6287
42.9862 79.3529
42.9921 83.3842
42.9980 87.7566
43.0039 92.5087
43.0098 97.6845
43.0157 103.325
43.0216 109.507
43.0275 116.289
43.0334 123.748
43.0393 131.961
43.0453 141.062
43.0512 151.161
43.0541 156.638
43.0571 162.404
43.0600 168.497
43.0630 174.942
43.0659 181.789
43.0689 189.022
43.0718 196.721
43.0748 204.869
43.0778 213.560
43.0807 222.776
43.0837 232.627
43.0866 243.097
43.0896 254.311
43.0925 266.256
43.0955 279.080
43.0984 292.771
43.1014 307.503
43.1043 323.268
43.1073 340.213
43.1102 358.447
43.1132 378.161
43.1162 399.355
43.1191 422.320
43.1221 447.063
43.1250 473.929
43.1280 502.930
43.1309 534.363
43.1324 551.118
43.1339 568.452
43.1354 586.630
43.1368 605.569
43.1383 625.301
43.1398 645.719
43.1413 667.133
43.1427 689.441
43.1442 712.677
43.1457 736.709
43.1472 761.895
43.1487 788.108
43.1501 815.379
43.1516 843.539
43.1531 872.997
43.1546 903.376
43.1560 935.106
43.1575 967.768
43.1602 1029.78
43.1628 1095.49
43.1655 1164.73
43.1681 1236.88
43.1708 1311.98
43.1734 1388.72
43.1761 1466.66
43.1788 1543.94
43.1814 1619.55
43.1841 1691.33
43.1867 1757.23
43.1894 1814.87
43.1920 1862.56
43.1947 1898.03
43.1974 1920.03
43.2000 1927.39
43.2027 1919.83
43.2053 1897.65
43.2080 1861.84
43.2106 1814.15
43.2133 1756.13
43.2159 1690.34
43.2186 1618.46
43.2213 1543.06
43.2239 1465.43
43.2266 1387.43
43.2319 1235.54
43.2345 1163.11
43.2372 1094.14
43.2399 1028.44
43.2425 966.656
43.2446 921.204
43.2466 877.992
43.2487 836.979
43.2507 798.110
43.2528 761.312
43.2549 726.505
43.2569 693.602
43.2590 662.513
43.2610 633.147
43.2631 605.411
43.2652 579.215
43.2672 554.473
43.2693 531.099
43.2713 509.013
43.2734 488.137
43.2755 468.490
43.2775 449.813
43.2796 432.138
43.2816 415.403
43.2837 399.550
43.2858 384.526
43.2878 370.278
43.2919 343.928
43.2961 320.153
43.3002 298.654
43.3043 279.168
43.3084 261.507
43.3125 245.386
43.3166 230.676
43.3208 217.224
43.3249 204.898
43.3290 193.579
43.3331 183.166
43.3372 173.567
43.3414 164.723
43.3455 156.520
43.3496 148.919
43.3537 141.862
43.3578 135.317
43.3619 129.208
43.3661 123.510
43.3702 118.189
43.3743 113.224
43.3784 108.563
43.3825 104.193
43.3867 100.091
43.3908 96.2347
43.3949 92.6061
43.3990 89.1877
43.4031 85.9638
43.4072 82.9275
43.4155 77.3297
43.4237 72.3115
43.4320 67.7967
43.4402 63.7257
43.4484 60.0342
43.4567 56.6812
43.4649 53.6271
43.4731 50.8412
43.4814 48.2872
43.4896 45.9462
43.4979 43.7903
43.5061 41.8056
43.5143 39.9703
43.5226 38.2723
43.5308 36.6983
43.5390 35.2386
43.5473 33.8793
43.5555 32.6133
43.5638 31.4325
43.5720 30.3308
43.5802 29.2992
43.5885 28.3331
43.5967 27.4274
43.6049 26.5784
43.6214 25.0293
43.6379 23.6565
43.6544 22.4348
43.6708 21.3457
43.6873 20.3715
43.7038 19.4978
43.7202 18.7125
43.7367 18.0061
43.7532 17.3695
43.7697 16.7952
43.7861 16.2765
43.8026 15.8085
43.8191 15.3859
43.8356 15.0049
43.8520 14.6615
43.8685 14.3528
43.8850 14.0760
43.9014 13.8285
43.9344 13.4131
43.9673 13.0928
44.0003 12.8566
44.0332 12.6963
44.0662 12.6055
44.0991 12.5797
44.1321 12.6160
44.1650 12.7123
44.1980 12.8682
44.2309 13.0839
44.2639 13.3610
44.2968 13.7018
44.3298 14.1101
44.3627 14.5906
44.3957 15.1494
44.4286 15.7938
44.4615 16.5337
44.4945 17.3804
44.5274 18.3477
44.5604 19.4523
44.5769 20.0629
44.5933 20.7157
44.6098 21.4148
44.6263 22.1631
44.6428 22.9656
44.6592 23.8259
44.6757 24.7496
44.6922 25.7426
44.7087 26.8117
44.7251 27.9631
44.7416 29.2055
44.7581 30.5480
44.7745 32.0020
44.7910 33.5776
44.8075 35.2891
44.8240 37.1519
44.8404 39.1850
44.8569 41.4063
44.8734 43.8422
44.8899 46.5170
44.9063 49.4660
44.9228 52.7231
44.9393 56.3341
44.9475 58.2895
44.9557 60.3512
44.9640 62.5324
44.9722 64.8396
44.9805 67.2825
44.9887 69.8685
44.9969 72.6157
45.0052 75.5341
45.0134 78.6381
45.0216 81.9392
45.0299 85.4632
45.0381 89.2258
45.0464 93.2486
45.0546 97.5506
45.0628 102.169
45.0711 107.124
45.0793 112.461
45.0875 118.206
45.0958 124.417
45.1040 131.135
45.1123 138.418
45.1205 146.320
45.1246 150.534
45.1287 154.934
45.1328 159.530
45.1370 164.334
45.1411 169.359
45.1452 174.618
45.1493 180.126
45.1534 185.885
45.1576 191.938
45.1617 198.292
45.1658 204.965
45.1699 211.980
45.1740 219.359
45.1782 227.127
45.1823 235.313
45.1864 243.924
45.1905 253.034
45.1946 262.659
45.1987 272.838
45.2029 283.585
45.2070 295.000
45.2111 307.106
45.2152 319.961
45.2193 333.591
45.2234 348.130
45.2276 363.620
45.2317 380.144
45.2358 397.791
45.2399 416.664
45.2440 436.873
45.2482 458.543
45.2523 481.754
45.2564 506.773
45.2605 533.718
45.2646 562.781
45.2687 594.100
45.2729 628.068
45.2770 664.884
45.2811 704.854
45.2852 748.212
45.2893 795.558
45.2935 847.225
45.2976 903.707
45.2996 933.924
45.3017 965.558
45.3038 998.689
45.3058 1033.40
45.3079 1069.79
45.3099 1107.94
45.3120 1147.96
45.3141 1189.95
45.3161 1234.03
45.3182 1280.07
45.3202 1328.67
45.3223 1379.71
45.3243 1433.34
45.3264 1489.70
45.3285 1548.93
45.3305 1611.18
45.3326 1676.59
45.3346 1744.99
45.3367 1817.18
45.3388 1893.00
45.3408 1972.58
45.3429 2056.07
45.3449 2143.59
45.3470 2235.26
45.3491 2331.15
45.3511 2430.83
45.3542 2587.54
45.3572 2753.62
45.3603 2928.62
45.3633 3111.11
45.3664 3300.99
45.3694 3495.14
45.3756 3887.84
45.3786 4079.11
45.3817 4260.74
45.3847 4427.48
45.3878 4573.42
45.3908 4694.11
45.3939 4783.93
45.3970 4839.57
45.4000 4858.18
45.4031 4839.00
45.4061 4782.80
45.4092 4692.12
45.4122 4571.30
45.4153 4424.44
45.4183 4257.86
45.4214 4075.95
45.4245 3885.09
45.4306 3491.47
45.4367 3107.34
45.4397 2924.25
45.4428 2749.86
45.4459 2583.82
45.4489 2427.65
45.4511 2322.76
45.4532 2223.03
45.4554 2127.48
45.4575 2036.88
45.4597 1950.25
45.4618 1868.26
45.4640 1790.33
45.4661 1716.29
45.4683 1645.66
45.4704 1578.91
45.4726 1515.54
45.4747 1455.37
45.4769 1397.98
45.4791 1343.74
45.4834 1243.29
45.4877 1152.37
45.4920 1070.35
45.4963 995.911
45.5006 928.542
45.5049 867.180
45.5092 811.446
45.5135 760.491
45.5178 714.034
45.5221 671.400
45.5264 632.295
45.5307 596.362
45.5350 563.357
45.5393 532.845
45.5436 504.722
45.5479 478.636
45.5522 454.511
45.5566 432.062
45.5609 411.236
45.5652 391.798
45.5695 373.713
45.5738 356.784
45.5781 340.991
45.5824 326.168
45.5867 312.304
45.5910 299.259
45.5953 287.001
45.5996 275.468
45.6039 264.631
45.6082 254.388
45.6125 244.742
45.6168 235.607
45.6211 226.987
45.6297 211.075
45.6384 196.763
45.6470 183.846
45.6556 172.152
45.6642 161.532
45.6728 151.859
45.6814 143.026
45.6900 134.939
45.6986 127.517
45.7072 120.689
45.7158 114.395
45.7245 108.580
45.7331 103.191
45.7417 98.2000
45.7503 93.5626
45.7589 89.2468
45.7675 85.2235
45.7761 81.4670
45.7847 77.9545
45.7933 74.6652
45.8020 71.5809
45.8106 68.6847
45.8192 65.9619
45.8278 63.3988
45.8364 60.9833
45.8450 58.7043
45.8536 56.5517
45.8622 54.5164
45.8795 50.7627
45.8967 47.3893
45.9139 44.3447
45.9311 41.5876
45.9483 39.0830
45.9656 36.8009
45.9828 34.7158
46.0000 32.8056
46.0000 124.162
50.0000 114.313
70.0000 94.7688
100.000 77.4399
200.000 51.7370
500.000 29.5729
700.000 23.8883
1000.00 18.9666
2000.00 12.0013
5000.00 6.57793
7000.00 5.33503
10000.0 4.33003
20000.0 3.04111
24344.5 2.90075
50000.0 2.07190
70000.0 1.81091
71305.2 1.79491
87438.0 1.59709
99833.6 1.44509
100000 1.44305
162616 1.06981
192356 0.892542
200000 0.846977
245272 0.700794
265832 0.634406
271265 0.616862
280262 0.587813
300000 0.524077
391854 0.395740
400000 0.384358
407459 0.379696
489845 0.328203
495000 0.324980
500000 0.321855
515086 0.316255
526208 0.312126
550407 0.303142
573236 0.294668
594216 0.286879
651141 0.265747
651704 0.265538
663569 0.261133
681154 0.254605
700000 0.247609
711276 0.244297
724252 0.240485
726592 0.239798
740596 0.235684
753498 0.231894
762396 0.229280
766395 0.228106
811893 0.214741
812422 0.214585
818193 0.212890
836904 0.207394
838778 0.206843
850000 0.203547
856477 0.202198
856584 0.202176
870336 0.199313
882236 0.196835
892105 0.194780
1.00000E+06 0.172315
1.30000E+06 0.128491
1.50000E+06 0.101679
1.80000E+06 0.0739155
2.00000E+06 0.0627622
2.25000E+06 0.0500570
2.50000E+06 0.0401656
2.75000E+06 0.0330524
3.00000E+06 0.0266682
3.20000E+06 0.0227973
3.40000E+06 0.0194727
3.60000E+06 0.0166195
3.80000E+06 0.0141681
4.00000E+06 0.0120624
4.20000E+06 0.0102521
4.40000E+06 0.00869741
4.60000E+06 0.00777370
4.80000E+06 0.00658859
5.00000E+06 0.00556951
5.50000E+06 0.00374838
6.00000E+06 0.00250582
6.90800E+06 0.00137559
7.00000E+06 0.00126107
8.00000E+06 0.000794676
9.00000E+06 0.000571395
1.00000E+07 0.000495264
1.10000E+07 0.000462051
1.20000E+07 0.000405338
1.30000E+07 0.000366396
1.40000E+07 0.000311583
1.50000E+07 0.000268711
1.60000E+07 0.000224242
1.70000E+07 0.000182704
1.80000E+07 0.000147271
1.90000E+07 0.000118608
2.00000E+07 0.000104480
