Hf-174(n,g) ENDFB-8.0
Energy(eV) XS(b)
1.00000E-05 28834.1
1.03125E-05 28393.9
1.06250E-05 27973.2
1.09375E-05 27570.6
1.12500E-05 27185.0
1.15625E-05 26815.1
1.18750E-05 26459.9
1.21875E-05 26118.5
1.25000E-05 25789.9
1.28125E-05 25473.4
1.31250E-05 25168.3
1.34375E-05 24873.9
1.37500E-05 24589.6
1.43750E-05 24049.1
1.50000E-05 23542.7
1.56250E-05 23067.1
1.62500E-05 22619.1
1.68750E-05 22196.2
1.75000E-05 21796.2
1.81250E-05 21417.1
1.87500E-05 21057.1
1.93750E-05 20714.7
2.00000E-05 20388.4
2.09375E-05 19926.7
2.18750E-05 19495.0
2.28125E-05 19090.2
2.37500E-05 18709.6
2.46875E-05 18350.9
2.56250E-05 18012.0
2.65625E-05 17691.3
2.75000E-05 17387.1
2.84375E-05 17098.0
2.93750E-05 16823.0
3.03125E-05 16560.7
3.12500E-05 16310.4
3.21875E-05 16071.1
3.31250E-05 15842.0
3.40625E-05 15622.5
3.50000E-05 15411.8
3.59375E-05 15209.4
3.68750E-05 15014.8
3.78125E-05 14827.5
3.87500E-05 14647.0
3.96875E-05 14472.9
4.06250E-05 14304.9
4.25000E-05 13985.8
4.43750E-05 13687.1
4.62500E-05 13406.7
4.81250E-05 13142.9
5.00000E-05 12894.1
5.15625E-05 12697.2
5.31250E-05 12509.0
5.46875E-05 12329.0
5.62500E-05 12156.5
5.78125E-05 11991.1
5.93750E-05 11832.2
6.09375E-05 11679.5
6.25000E-05 11532.6
6.40625E-05 11391.0
6.56250E-05 11254.6
6.71875E-05 11122.9
6.87500E-05 10995.7
7.18750E-05 10754.0
7.50000E-05 10527.5
7.81250E-05 10314.7
8.12500E-05 10114.4
8.43750E-05 9925.25
8.75000E-05 9746.35
9.06250E-05 9576.78
9.37500E-05 9415.76
9.68750E-05 9262.59
0.000100000 9116.67
0.000103125 8977.42
0.000106250 8844.37
0.000109375 8717.05
0.000112500 8595.08
0.000115625 8478.09
0.000118750 8365.74
0.000121875 8257.75
0.000125000 8153.83
0.000128125 8053.73
0.000131250 7957.23
0.000134375 7864.12
0.000137500 7774.19
0.000143750 7603.23
0.000150000 7443.06
0.000156250 7292.59
0.000162500 7150.90
0.000168750 7017.14
0.000175000 6890.62
0.000181250 6770.70
0.000187500 6656.82
0.000193750 6548.50
0.000200000 6445.29
0.000209375 6299.24
0.000218750 6162.67
0.000228125 6034.61
0.000237500 5914.21
0.000246875 5800.73
0.000256250 5693.53
0.000265625 5592.06
0.000275000 5495.82
0.000284375 5404.38
0.000293750 5317.35
0.000303125 5234.39
0.000312500 5155.19
0.000321875 5079.47
0.000331250 5006.99
0.000340625 4937.53
0.000350000 4870.87
0.000359375 4806.83
0.000368750 4745.25
0.000378125 4685.98
0.000387500 4628.87
0.000396875 4573.79
0.000406250 4520.64
0.000425000 4419.64
0.000443750 4325.12
0.000462500 4236.39
0.000481250 4152.91
0.000500000 4074.16
0.000515625 4011.84
0.000531250 3952.29
0.000546875 3895.31
0.000562500 3840.72
0.000578125 3788.36
0.000593750 3738.07
0.000609375 3689.74
0.000625000 3643.22
0.000640625 3598.42
0.000656250 3555.22
0.000671875 3513.54
0.000687500 3473.28
0.000718750 3396.75
0.000750000 3325.04
0.000781250 3257.68
0.000812500 3194.24
0.000843750 3134.36
0.000875000 3077.70
0.000906250 3024.01
0.000937500 2973.01
0.000968750 2924.50
0.00100000 2878.29
0.00103125 2834.18
0.00106250 2792.04
0.00109375 2751.71
0.00112500 2713.07
0.00115625 2676.00
0.00118750 2640.41
0.00121875 2606.20
0.00125000 2573.27
0.00128125 2541.55
0.00131250 2510.97
0.00134375 2481.46
0.00137500 2452.97
0.00143750 2398.78
0.00150000 2348.01
0.00156250 2300.32
0.00162500 2255.39
0.00168750 2212.99
0.00175000 2172.86
0.00181250 2134.83
0.00187500 2098.72
0.00193750 2064.36
0.00200000 2031.62
0.00209375 1985.28
0.00218750 1941.94
0.00228125 1901.30
0.00237500 1863.08
0.00246875 1827.05
0.00256250 1793.02
0.00265625 1760.79
0.00275000 1730.23
0.00284375 1701.18
0.00293750 1673.53
0.00303125 1647.17
0.00312500 1622.00
0.00321875 1597.94
0.00331250 1574.90
0.00340625 1552.81
0.00350000 1531.62
0.00359375 1511.25
0.00368750 1491.67
0.00378125 1472.81
0.00387500 1454.64
0.00396875 1437.12
0.00406250 1420.20
0.00425000 1388.05
0.00443750 1357.96
0.00462500 1329.70
0.00481250 1303.10
0.00500000 1278.01
0.00515625 1258.14
0.00531250 1239.15
0.00546875 1220.98
0.00562500 1203.57
0.00578125 1186.86
0.00593750 1170.81
0.00609375 1155.38
0.00625000 1140.53
0.00640625 1126.23
0.00656250 1112.43
0.00671875 1099.11
0.00687500 1086.25
0.00718750 1061.78
0.00750000 1038.85
0.00781250 1017.29
0.00812500 996.978
0.00843750 977.795
0.00875000 959.639
0.00906250 942.422
0.00937500 926.064
0.00968750 910.496
0.0100000 895.656
0.0103125 881.489
0.0106250 867.946
0.0109375 854.981
0.0112500 842.554
0.0115625 830.629
0.0118750 819.173
0.0121875 808.155
0.0125000 797.548
0.0128125 787.327
0.0131250 777.469
0.0134375 767.952
0.0137500 758.757
0.0143750 741.261
0.0150000 724.854
0.0156250 709.425
0.0162500 694.880
0.0168750 681.136
0.0175000 668.123
0.0181250 655.776
0.0187500 644.041
0.0193750 632.869
0.0200000 622.214
0.0206625 611.442
0.0213250 601.167
0.0219875 591.350
0.0226500 581.959
0.0233125 572.962
0.0239750 564.333
0.0246375 556.047
0.0253000 548.082
0.0263613 535.938
0.0274227 524.489
0.0284840 513.672
0.0295453 503.428
0.0306067 493.710
0.0316680 484.472
0.0327293 475.677
0.0337906 467.289
0.0345625 461.426
0.0355274 454.360
0.0364922 447.567
0.0374570 441.030
0.0384219 434.732
0.0393867 428.659
0.0403516 422.798
0.0413164 417.137
0.0422813 411.664
0.0432461 406.369
0.0442109 401.243
0.0461406 391.462
0.0480703 382.256
0.0500000 373.571
0.0515625 366.886
0.0531250 360.488
0.0546875 354.356
0.0562500 348.473
0.0578125 342.821
0.0593750 337.385
0.0609375 332.152
0.0625000 327.109
0.0640625 322.245
0.0656250 317.549
0.0671875 313.013
0.0687500 308.626
0.0703125 304.381
0.0718750 300.271
0.0734375 296.288
0.0750000 292.425
0.0781250 285.036
0.0812500 278.059
0.0843750 271.454
0.0875000 265.192
0.0906250 259.244
0.0937500 253.583
0.0968750 248.188
0.100000 243.039
0.103125 238.116
0.106250 233.403
0.109375 228.887
0.112500 224.553
0.115625 220.389
0.118750 216.386
0.121875 212.531
0.125000 208.817
0.128125 205.235
0.131250 201.778
0.134375 198.438
0.137500 195.209
0.140625 192.085
0.143750 189.060
0.146875 186.130
0.150000 183.289
0.153125 180.535
0.156250 177.861
0.159375 175.266
0.162500 172.745
0.168750 167.909
0.175000 163.326
0.181250 158.977
0.187500 154.843
0.193750 150.908
0.200000 147.157
0.206445 143.467
0.212891 139.947
0.219336 136.584
0.225781 133.367
0.232227 130.285
0.238672 127.331
0.245117 124.496
0.251563 121.772
0.257422 119.387
0.263281 117.085
0.269141 114.861
0.275000 112.712
0.284375 109.417
0.293750 106.284
0.303125 103.303
0.312500 100.464
0.321875 97.7562
0.331250 95.1714
0.340625 92.7011
0.350000 90.3378
0.359375 88.0747
0.368750 85.9055
0.378125 83.8246
0.387500 81.8266
0.396875 79.9069
0.406250 78.0609
0.415625 76.2845
0.425000 74.5740
0.434375 72.9258
0.443750 71.3367
0.453125 69.8036
0.462500 68.3242
0.471875 66.8967
0.481250 65.5194
0.500000 62.9066
0.531250 58.8989
0.562500 55.2768
0.593750 51.9993
0.625000 49.0218
0.656250 46.3071
0.687500 43.8238
0.718750 41.5452
0.750000 39.4487
0.781250 37.5147
0.812500 35.7264
0.843750 34.0690
0.875000 32.5297
0.906250 31.0974
0.937500 29.7621
0.968750 28.5150
1.00000 27.3485
1.03125 26.2557
1.06250 25.2302
1.09375 24.2668
1.12500 23.3603
1.15625 22.5066
1.18750 21.7054
1.25000 20.2297
1.31250 18.9035
1.37500 17.7111
1.43750 16.6349
1.50000 15.6602
1.56250 14.7747
1.62500 13.9677
1.68750 13.2303
1.75000 12.5547
1.81250 11.9341
1.87500 11.3628
1.93750 10.8357
2.00000 10.3485
2.08740 9.72684
2.17480 9.16627
2.26220 8.65941
2.34959 8.19999
2.43699 7.78234
2.52439 7.40210
2.61179 7.05534
2.69919 6.73881
2.78659 6.44993
2.87399 6.18653
2.96138 5.94709
3.04878 5.73073
3.13618 5.53728
3.22358 5.36784
3.31098 5.22519
3.39838 5.11535
3.46194 5.06255
3.52550 5.04017
3.55728 5.04467
3.58906 5.06393
3.62084 5.10150
3.65263 5.16249
3.68441 5.25463
3.70030 5.31606
3.71619 5.39048
3.73208 5.48055
3.74797 5.58956
3.76386 5.72177
3.77975 5.88275
3.79266 6.03986
3.80557 6.22624
3.81848 6.44895
3.83140 6.71733
3.83785 6.87245
3.84431 7.04406
3.85076 7.23451
3.85722 7.44656
3.86367 7.68362
3.87013 7.94970
3.87659 8.24984
3.88304 8.59008
3.88999 9.01030
3.89347 9.24484
3.89695 9.49804
3.90042 9.77196
3.90390 10.0690
3.90737 10.3918
3.91085 10.7434
3.91433 11.1274
3.91780 11.5478
3.92128 12.0092
3.92475 12.5167
3.92823 13.0763
3.93171 13.6946
3.93518 14.3791
3.93866 15.1383
3.94102 15.7008
3.94338 16.3051
3.94573 16.9545
3.94809 17.6527
3.95045 18.4035
3.95281 19.2106
3.95517 20.0783
3.95753 21.0104
3.95989 22.0119
3.96225 23.0869
3.96461 24.2398
3.96696 25.4744
3.96932 26.7960
3.97168 28.2083
3.97404 29.7151
3.97640 31.3192
3.97913 33.3043
3.98186 35.4282
3.98459 37.6944
3.98732 40.1041
3.99005 42.6572
3.99279 45.3515
3.99552 48.1830
3.99825 51.1452
4.00098 54.2305
4.00371 57.4253
4.00917 64.0882
4.02010 77.9534
4.02506 84.1483
4.03003 90.0281
4.03549 95.9091
4.03822 98.5440
4.04095 100.936
4.04368 103.058
4.04641 104.885
4.04915 106.396
4.05188 107.572
4.05594 108.674
4.06000 108.976
4.06264 108.739
4.06528 108.164
4.06792 107.256
4.07056 106.027
4.07320 104.491
4.07584 102.665
4.07849 100.569
4.08113 98.2267
4.08535 94.0293
4.08957 89.3734
4.09448 83.5348
4.09939 77.4120
4.10921 64.9784
4.11412 58.9555
4.11903 53.2136
4.12394 47.8333
4.12639 45.2962
4.12884 42.8690
4.13242 39.5372
4.13599 36.4474
4.13956 33.5973
4.14313 30.9838
4.14670 28.5972
4.15027 26.4280
4.15384 24.4628
4.15741 22.6878
4.15986 21.5699
4.16232 20.5301
4.16477 19.5638
4.16723 18.6665
4.16968 17.8329
4.17214 17.0592
4.17459 16.3406
4.17704 15.6735
4.17950 15.0536
4.18195 14.4777
4.18441 13.9420
4.18686 13.4438
4.18932 12.9796
4.19177 12.5471
4.19423 12.1433
4.19668 11.7664
4.20092 11.1718
4.20516 10.6404
4.20940 10.1639
4.21364 9.73504
4.21788 9.34753
4.22212 8.99619
4.22636 8.67653
4.23060 8.38477
4.23484 8.11751
4.23908 7.87202
4.24332 7.64587
4.24756 7.43702
4.25604 7.06403
4.26452 6.74132
4.27210 6.48769
4.27969 6.26188
4.28728 6.05976
4.29486 5.87796
4.30245 5.71368
4.31004 5.56462
4.31763 5.42883
4.32521 5.30467
4.34039 5.08593
4.35556 4.89958
4.37073 4.73912
4.38591 4.59964
4.40644 4.43773
4.42697 4.30029
4.44750 4.18202
4.46802 4.07895
4.48855 3.98814
4.50908 3.90743
4.55014 3.76997
4.59120 3.65690
4.63226 3.56139
4.67332 3.47842
4.71438 3.40525
4.78578 3.29589
4.85719 3.20336
4.92859 3.12360
5.00000 3.05121
5.07813 2.98009
5.15625 2.91644
5.31250 2.80399
5.46875 2.70677
5.62500 2.62178
5.78125 2.54679
5.93750 2.48030
6.09375 2.42129
6.25000 2.36897
6.40625 2.32277
6.56250 2.28226
6.71875 2.24709
6.87500 2.21702
7.03125 2.19185
7.18750 2.17148
7.34375 2.15583
7.50000 2.14490
7.65625 2.13872
7.92969 2.13970
8.20313 2.15654
8.33984 2.17134
8.47656 2.19073
8.61328 2.21505
8.75000 2.24471
8.90625 2.28573
9.06250 2.33513
9.21875 2.39392
9.37500 2.46332
9.53125 2.54483
9.68750 2.64029
9.84375 2.75197
10.0000 2.88217
10.1304 3.00778
10.2608 3.15202
10.3911 3.31757
10.4563 3.40951
10.5215 3.50828
10.5867 3.61453
10.6519 3.72894
10.7171 3.85231
10.7823 3.98555
10.8475 4.12955
10.9127 4.28504
10.9779 4.45334
11.0430 4.63694
11.1148 4.85842
11.1865 5.10255
11.2582 5.37235
11.3299 5.67143
11.4016 6.00419
11.4733 6.37572
11.5450 6.79222
11.5809 7.01957
11.6167 7.26107
11.6786 7.71524
11.7406 8.22229
11.8025 8.79081
11.8335 9.10131
11.8644 9.43110
11.8954 9.78201
11.9264 10.1556
11.9573 10.5539
11.9883 10.9789
12.0193 11.4332
12.0502 11.9197
12.0812 12.4421
12.1122 13.0037
12.1480 13.7090
12.1839 14.4794
12.2197 15.3237
12.2556 16.2508
12.2914 17.2726
12.3273 18.4020
12.3631 19.6549
12.3990 21.0500
12.4226 22.0583
12.4463 23.1450
12.4699 24.3189
12.4935 25.5897
12.5172 26.9693
12.5290 27.7037
12.5408 28.4695
12.5526 29.2698
12.5644 30.1056
12.5762 30.9802
12.5880 31.8948
12.5958 32.5182
12.6035 33.1601
12.6113 33.8222
12.6190 34.5052
12.6268 35.2101
12.6345 35.9378
12.6422 36.6894
12.6500 37.4658
12.6585 38.3549
12.6671 39.2762
12.6756 40.2338
12.6842 41.2271
12.6887 41.7641
12.6932 42.3109
12.6976 42.8689
12.7021 43.4386
12.7086 44.2889
12.7152 45.1640
12.7196 45.7835
12.7241 46.4148
12.7286 47.0598
12.7331 47.7188
12.7376 48.3938
12.7421 49.0823
12.7465 49.7861
12.7510 50.5058
12.7555 51.2417
12.7600 51.9945
12.7645 52.7646
12.7689 53.5526
12.7732 54.3226
12.7775 55.1099
12.7818 55.9152
12.7861 56.7388
12.7903 57.5815
12.7946 58.4438
12.7989 59.3263
12.8032 60.2275
12.8077 61.1984
12.8121 62.1915
12.8166 63.2098
12.8211 64.2543
12.8256 65.3258
12.8301 66.4253
12.8345 67.5538
12.8390 68.7124
12.8435 69.9048
12.8480 71.1268
12.8525 72.3824
12.8569 73.6727
12.8614 74.9991
12.8659 76.3629
12.8704 77.7656
12.8749 79.2087
12.8789 80.5595
12.8830 81.9430
12.8871 83.3673
12.8912 84.8268
12.8952 86.3301
12.8993 87.8713
12.9034 89.4597
12.9075 91.0892
12.9115 92.7694
12.9156 94.4940
12.9197 96.2734
12.9238 98.1010
12.9278 99.9879
12.9319 101.927
12.9360 103.925
12.9401 105.985
12.9445 108.333
12.9490 110.757
12.9535 113.267
12.9580 115.866
12.9625 118.566
12.9670 121.360
12.9714 124.257
12.9759 127.265
12.9804 130.395
12.9849 133.640
12.9894 137.014
12.9938 140.524
12.9983 144.185
13.0028 147.990
13.0073 151.955
13.0118 156.091
13.0163 160.418
13.0207 164.927
13.0252 169.640
13.0297 174.570
13.0342 179.733
13.0387 185.143
13.0431 190.818
13.0476 196.776
13.0521 203.053
13.0566 209.643
13.0611 216.584
13.0656 223.905
13.0700 231.634
13.0745 239.806
13.0790 248.458
13.0835 257.631
13.0874 266.031
13.0912 274.865
13.0951 284.189
13.0990 294.044
13.1028 304.472
13.1067 315.520
13.1106 327.239
13.1144 339.688
13.1183 352.928
13.1222 367.029
13.1261 382.065
13.1299 398.119
13.1338 415.281
13.1377 433.650
13.1415 453.334
13.1454 474.451
13.1499 500.913
13.1544 529.625
13.1589 560.879
13.1611 577.539
13.1633 594.932
13.1656 613.095
13.1678 632.063
13.1701 651.875
13.1723 672.571
13.1745 694.192
13.1768 716.779
13.1790 740.377
13.1813 765.030
13.1835 790.902
13.1857 817.811
13.1880 845.916
13.1902 875.267
13.1925 905.915
13.1947 937.911
13.1969 971.305
13.1992 1006.15
13.2014 1042.67
13.2037 1080.58
13.2059 1120.10
13.2082 1161.29
13.2126 1248.85
13.2171 1343.68
13.2216 1446.41
13.2261 1556.94
13.2306 1675.81
13.2350 1803.32
13.2395 1939.67
13.2440 2085.01
13.2485 2239.41
13.2530 2402.85
13.2575 2575.57
13.2619 2756.55
13.2664 2945.79
13.2709 3142.77
13.2754 3346.82
13.2799 3557.14
13.2888 3992.62
13.3084 4968.15
13.3173 5399.10
13.3263 5799.49
13.3314 6006.77
13.3364 6197.21
13.3415 6368.40
13.3465 6517.80
13.3532 6677.92
13.3598 6794.09
13.3664 6863.57
13.3730 6884.69
13.3752 6880.85
13.3788 6862.96
13.3824 6830.87
13.3860 6784.65
13.3896 6724.88
13.3968 6565.91
13.4040 6358.39
13.4087 6198.10
13.4134 6021.06
13.4182 5829.26
13.4229 5625.22
13.4281 5386.94
13.4334 5138.67
13.4438 4623.64
13.4615 3746.55
13.4704 3328.52
13.4748 3128.07
13.4792 2934.96
13.4837 2748.95
13.4881 2571.34
13.4925 2401.70
13.4969 2241.03
13.5014 2088.72
13.5058 1945.50
13.5102 1810.66
13.5146 1684.66
13.5199 1546.06
13.5251 1418.96
13.5303 1302.57
13.5356 1196.29
13.5408 1099.51
13.5434 1054.39
13.5460 1011.57
13.5486 970.641
13.5512 931.825
13.5539 894.747
13.5565 859.610
13.5609 803.861
13.5653 752.795
13.5698 705.822
13.5742 662.814
13.5786 623.254
13.5830 587.018
13.5875 553.660
13.5919 523.068
13.5963 494.861
13.6007 468.944
13.6052 444.995
13.6096 422.936
13.6140 402.498
13.6184 383.618
13.6229 366.072
13.6273 349.812
13.6317 334.652
13.6361 320.527
13.6406 307.344
13.6450 295.046
13.6494 283.504
13.6538 272.703
13.6583 262.533
13.6627 252.985
13.6671 243.969
13.6715 235.481
13.6804 219.853
13.6892 205.829
13.6981 193.184
13.7057 183.222
13.7134 174.063
13.7210 165.597
13.7287 157.772
13.7363 150.503
13.7440 143.754
13.7516 137.466
13.7592 131.597
13.7669 126.101
13.7745 120.960
13.7822 116.131
13.7898 111.599
13.7975 107.330
13.8051 103.312
13.8127 99.5218
13.8204 95.9415
13.8292 92.0320
13.8381 88.3662
13.8469 84.9200
13.8558 81.6759
13.8647 78.6148
13.8735 75.7293
13.8824 73.0031
13.8912 70.4245
13.9089 65.6659
13.9266 61.3850
13.9443 57.5169
13.9620 54.0100
13.9829 50.2709
14.0039 46.9142
14.0248 43.8892
14.0457 41.1533
14.0666 38.6706
14.0875 36.4103
14.1085 34.3465
14.1294 32.4574
14.1471 30.9790
14.1648 29.6020
14.1825 28.3167
14.2002 27.1150
14.2179 25.9892
14.2356 24.9344
14.2533 23.9440
14.2710 23.0131
14.2887 22.1364
14.3064 21.3107
14.3241 20.5317
14.3418 19.7960
14.3772 18.4416
14.4126 17.2263
14.4480 16.1311
14.4834 15.1412
14.5188 14.2430
14.5542 13.4260
14.5896 12.6804
14.6250 11.9984
14.6604 11.3730
14.6958 10.7982
14.7280 10.3151
14.7602 9.86582
14.7924 9.44716
14.8246 9.05635
14.8568 8.69071
14.8890 8.34839
14.9211 8.02734
14.9533 7.72606
14.9855 7.44283
15.0177 7.17641
15.0499 6.92535
15.0821 6.68865
15.1464 6.25385
15.2108 5.86465
15.2816 5.48191
15.3524 5.14018
15.4232 4.83385
15.4940 4.55826
15.5648 4.30941
15.6357 4.08400
15.7065 3.87923
15.7773 3.69278
15.8416 3.53758
15.9060 3.39463
15.9704 3.26226
16.0348 3.13930
16.0991 3.02510
16.1635 2.91894
16.2279 2.82012
16.2922 2.72800
16.3566 2.64200
16.4210 2.56162
16.5497 2.41591
16.6785 2.28772
16.8072 2.17448
16.8909 2.10787
16.9746 2.04619
17.0583 1.98901
17.1419 1.93592
17.3093 1.84072
17.4767 1.75824
17.6440 1.68663
17.8114 1.62493
17.9788 1.57056
18.1461 1.52317
18.3779 1.46764
18.6096 1.42215
18.8413 1.38528
19.0731 1.35591
19.3048 1.33316
19.5365 1.31636
19.7683 1.30499
20.0000 1.29879
20.1940 1.29749
20.3881 1.29895
20.5821 1.30353
20.7761 1.31145
20.9702 1.32207
21.1642 1.33602
21.3582 1.35312
21.5523 1.37317
21.7463 1.39695
21.9403 1.42398
22.1344 1.45466
22.3284 1.48961
22.5224 1.52831
22.7164 1.57178
22.9105 1.61947
23.1045 1.67316
23.3179 1.73911
23.5314 1.81305
23.7448 1.89597
23.9582 1.98905
24.1717 2.09370
24.3851 2.21161
24.5986 2.34483
24.8120 2.49581
24.9963 2.64284
25.1806 2.80773
25.3650 2.99335
25.4571 3.09499
25.5493 3.20314
25.6415 3.31840
25.7336 3.44134
25.8258 3.57267
25.9180 3.71303
26.0101 3.86296
26.1023 4.02339
26.1945 4.19619
26.2866 4.38249
26.3448 4.50754
26.4030 4.63870
26.4613 4.77639
26.5195 4.92113
26.5777 5.07343
26.6068 5.15259
26.6359 5.23381
26.6650 5.31720
26.6941 5.40279
26.7232 5.49069
26.7523 5.58097
26.7753 5.65424
26.7984 5.72908
26.8214 5.80556
26.8445 5.88374
26.8675 5.96370
26.8906 6.04542
26.9136 6.12899
26.9366 6.21446
26.9633 6.31590
26.9900 6.42007
27.0167 6.52706
27.0433 6.63693
27.0652 6.72912
27.0870 6.82341
27.1088 6.91985
27.1197 6.96888
27.1307 7.01847
27.1452 7.08555
27.1598 7.15362
27.1695 7.19964
27.1792 7.24608
27.1889 7.29301
27.1986 7.34044
27.2107 7.40045
27.2228 7.46124
27.2350 7.52285
27.2471 7.58523
27.2713 7.71255
27.2956 7.84334
27.3089 7.91681
27.3223 7.99138
27.3356 8.06709
27.3489 8.14395
27.3623 8.22199
27.3756 8.30123
27.3890 8.38169
27.4023 8.46341
27.4156 8.54641
27.4290 8.63071
27.4423 8.71634
27.4557 8.80333
27.4690 8.89172
27.4823 8.98152
27.4957 9.07278
27.5090 9.16551
27.5284 9.30316
27.5478 9.44404
27.5672 9.58834
27.5866 9.73615
27.6060 9.88768
27.6254 10.0429
27.6448 10.2020
27.6642 10.3651
27.6776 10.4796
27.6909 10.5962
27.7043 10.7148
27.7176 10.8355
27.7309 10.9584
27.7443 11.0835
27.7576 11.2108
27.7710 11.3405
27.7843 11.4725
27.7976 11.6069
27.8243 11.8833
27.8510 12.1702
27.8777 12.4681
27.9044 12.7776
27.9310 13.0992
27.9577 13.4337
27.9844 13.7817
28.0111 14.1439
28.0378 14.5212
28.0644 14.9145
28.0911 15.3243
28.1178 15.7522
28.1445 16.1988
28.1712 16.6655
28.1978 17.1533
28.2245 17.6636
28.2512 18.1979
28.2779 18.7575
28.3045 19.3440
28.3312 19.9596
28.3579 20.6060
28.3846 21.2852
28.4113 21.9996
28.4379 22.7517
28.4646 23.5442
28.4913 24.3799
28.5180 25.2622
28.5447 26.1946
28.5713 27.1810
28.5980 28.2257
28.6247 29.3334
28.6514 30.5092
28.6781 31.7589
28.7047 33.0890
28.7314 34.5058
28.7581 36.0185
28.7848 37.6352
28.8115 39.3658
28.8381 41.2214
28.8648 43.2144
28.8915 45.3589
28.9182 47.6707
28.9449 50.1679
28.9715 52.8710
28.9849 54.3070
28.9982 55.8037
29.0116 57.3644
29.0249 58.9929
29.0382 60.6934
29.0516 62.4700
29.0649 64.3275
29.0783 66.2710
29.0916 68.3059
29.1049 70.4381
29.1183 72.6739
29.1316 75.0204
29.1450 77.4851
29.1583 80.0740
29.1716 82.8001
29.1850 85.6712
29.1983 88.6978
29.2116 91.8917
29.2250 95.2655
29.2383 98.8334
29.2517 102.611
29.2650 106.615
29.2783 110.865
29.2917 115.381
29.3050 120.187
29.3184 125.309
29.3317 130.777
29.3450 136.622
29.3584 142.882
29.3717 149.599
29.3851 156.820
29.3984 164.598
29.4117 172.995
29.4251 182.081
29.4384 191.938
29.4518 202.661
29.4651 214.360
29.4784 227.164
29.4918 241.228
29.5051 256.736
29.5118 265.098
29.5185 273.908
29.5251 283.199
29.5318 293.011
29.5385 303.387
29.5451 314.374
29.5518 326.024
29.5585 338.397
29.5652 351.557
29.5718 365.578
29.5785 380.541
29.5852 396.511
29.5918 413.638
29.5985 432.011
29.6052 451.757
29.6118 473.017
29.6185 495.946
29.6252 520.720
29.6318 547.533
29.6385 576.599
29.6452 608.156
29.6519 642.466
29.6585 679.816
29.6652 720.523
29.6719 764.929
29.6785 813.409
29.6852 866.364
29.6919 924.228
29.6958 960.997
29.6998 999.648
29.7037 1040.38
29.7076 1083.29
29.7116 1128.49
29.7155 1176.10
29.7195 1226.22
29.7234 1278.97
29.7274 1334.62
29.7313 1393.00
29.7352 1454.37
29.7392 1518.84
29.7431 1586.53
29.7471 1657.56
29.7510 1732.04
29.7549 1810.08
29.7616 1950.62
29.7683 2102.15
29.7749 2265.11
29.7816 2439.85
29.7883 2626.65
29.7950 2825.68
29.8016 3037.00
29.8083 3260.53
29.8150 3496.05
29.8216 3743.16
29.8283 4001.31
29.8350 4269.74
29.8416 4547.51
29.8483 4833.47
29.8617 5424.38
29.8956 6954.08
29.9089 7518.18
29.9223 8031.90
29.9316 8351.74
29.9410 8630.60
29.9504 8863.37
29.9597 9044.73
29.9660 9136.47
29.9724 9201.99
29.9787 9240.84
29.9850 9252.53
29.9953 9213.34
30.0056 9103.07
30.0159 8924.67
30.0262 8682.78
30.0335 8477.75
30.0407 8246.83
30.0480 7992.83
30.0552 7718.72
30.0686 7169.28
30.0820 6581.81
30.1052 5534.85
30.1168 5018.84
30.1283 4520.86
30.1350 4243.03
30.1417 3975.10
30.1484 3717.56
30.1551 3471.16
30.1618 3236.10
30.1685 3013.45
30.1752 2803.05
30.1819 2604.97
30.1887 2418.86
30.1954 2245.09
30.2021 2083.10
30.2088 1932.50
30.2155 1792.67
30.2222 1663.52
30.2289 1544.32
30.2356 1434.51
30.2420 1337.87
30.2484 1248.77
30.2548 1166.73
30.2612 1091.35
30.2676 1021.94
30.2740 958.154
30.2804 899.550
30.2867 845.793
30.2931 796.319
30.2995 750.846
30.3059 709.028
30.3123 670.602
30.3187 635.152
30.3251 602.516
30.3315 572.342
30.3379 544.496
30.3446 517.482
30.3513 492.571
30.3580 469.524
30.3647 448.166
30.3714 428.308
30.3781 409.869
30.3848 392.688
30.3915 376.653
30.3982 361.638
30.4049 347.597
30.4116 334.424
30.4183 322.046
30.4250 310.396
30.4317 299.415
30.4451 279.251
30.4537 267.530
30.4622 256.578
30.4707 246.327
30.4793 236.713
30.4878 227.682
30.4963 219.185
30.5049 211.177
30.5134 203.621
30.5304 189.726
30.5475 177.258
30.5646 166.021
30.5816 155.857
30.5950 148.524
30.6084 141.714
30.6218 135.370
30.6352 129.456
30.6486 123.925
30.6620 118.753
30.6754 113.904
30.6888 109.351
30.7023 105.068
30.7157 101.038
30.7291 97.2369
30.7425 93.6522
30.7559 90.2625
30.7693 87.0585
30.7961 81.1483
30.8229 75.8254
30.8497 71.0154
30.8765 66.6540
30.9033 62.6879
30.9301 59.0679
30.9569 55.7559
30.9837 52.7176
31.0105 49.9245
31.0349 47.5738
31.0593 45.3877
31.0837 43.3499
31.1080 41.4473
31.1324 39.6679
31.1568 38.0012
31.1811 36.4377
31.2055 34.9692
31.2299 33.5881
31.2542 32.2876
31.2786 31.0615
31.3030 29.9043
31.3274 28.8110
31.3517 27.7770
31.4005 25.8701
31.4273 24.9043
31.4541 23.9920
31.5077 22.3127
31.5613 20.8047
31.6149 19.4458
31.6685 18.2165
31.7222 17.1013
31.7758 16.0861
31.8294 15.1596
31.8635 14.6113
31.8976 14.0926
31.9659 13.1356
32.0341 12.2742
32.1023 11.4965
32.1706 10.7916
32.2388 10.1502
32.3070 9.56464
32.3753 9.02874
32.4289 8.63896
32.4825 8.27429
32.5361 7.93264
32.5897 7.61217
32.6434 7.31106
32.6970 7.02789
32.7506 6.76116
32.8042 6.50972
32.8578 6.27235
32.9114 6.04808
33.0187 5.63504
33.1259 5.26403
33.2331 4.92954
33.3404 4.62694
33.4476 4.35232
33.5548 4.10233
33.6620 3.87412
33.7693 3.66524
33.8765 3.47360
33.9837 3.29749
34.0910 3.13554
34.1982 2.98592
34.3054 2.84703
34.4127 2.71806
34.5199 2.59822
34.6271 2.48669
34.7343 2.38272
34.8416 2.28565
34.9488 2.19487
35.0560 2.10987
35.1633 2.03017
35.2705 1.95533
35.3777 1.88496
35.4850 1.81873
35.5922 1.75632
35.8066 1.64182
36.0211 1.53948
36.2356 1.44765
36.4500 1.36495
36.6645 1.29021
36.8789 1.22246
37.0934 1.16086
37.3079 1.10470
37.5223 1.05336
37.7173 1.01046
37.9123 0.971057
38.1072 0.934252
38.3022 0.900058
38.4972 0.868154
38.6921 0.838509
38.8871 0.810838
39.0820 0.784948
39.4720 0.738124
39.8619 0.696962
40.2518 0.660592
40.6417 0.628355
40.9147 0.607950
41.1876 0.589126
41.4606 0.571731
41.7335 0.555635
42.0065 0.540724
42.2794 0.526897
42.8253 0.502154
43.0983 0.491127
43.3712 0.481091
43.9171 0.462509
44.4630 0.446428
45.0089 0.432547
45.6328 0.419002
46.2567 0.407598
46.8806 0.398072
47.5045 0.390214
48.1284 0.383854
48.7522 0.378856
49.3761 0.375115
50.0000 0.372548
50.6442 0.371064
51.5301 0.370924
52.4159 0.372817
53.3017 0.376820
54.1875 0.383078
55.0734 0.391584
55.9592 0.402760
56.4021 0.409376
56.8450 0.416890
57.2879 0.425197
57.7308 0.434385
58.2945 0.447696
58.8582 0.462968
59.4219 0.480486
59.9856 0.500275
60.5494 0.523415
61.1131 0.550270
61.3949 0.565334
61.6768 0.581648
61.9586 0.599356
62.2405 0.618628
62.6029 0.646021
62.9652 0.676821
63.3276 0.711645
63.6900 0.751268
63.8712 0.773168
64.0524 0.796676
64.2336 0.821920
64.4148 0.849016
64.5960 0.878123
64.7771 0.909797
64.9583 0.944250
65.1395 0.981739
65.2503 1.00629
65.3610 1.03220
65.4717 1.05963
65.5824 1.08872
65.6932 1.11958
65.7485 1.13573
65.8039 1.15237
65.8593 1.16953
65.9146 1.18724
65.9700 1.20552
66.0253 1.22440
66.0807 1.24391
66.1361 1.26408
66.1914 1.28495
66.2468 1.30653
66.3022 1.32888
66.3575 1.35202
66.4129 1.37601
66.4683 1.40087
66.5488 1.43870
66.5891 1.45840
66.6293 1.47864
66.6696 1.49946
66.7099 1.52087
66.7501 1.54289
66.7702 1.55414
66.7904 1.56556
66.8080 1.57569
66.8256 1.58595
66.8432 1.59635
66.8608 1.60688
66.8797 1.61831
66.8986 1.62991
66.9175 1.64167
66.9363 1.65360
66.9552 1.66570
66.9741 1.67798
67.0118 1.70306
67.0357 1.71934
67.0597 1.73592
67.1075 1.77002
67.1553 1.80546
67.2031 1.84228
67.2509 1.88058
67.2987 1.92042
67.3465 1.96190
67.3943 2.00513
67.4245 2.03338
67.4547 2.06239
67.4849 2.09219
67.5151 2.12282
67.5453 2.15430
67.5755 2.18667
67.6057 2.21997
67.6359 2.25422
67.6712 2.29547
67.7064 2.33814
67.7416 2.38230
67.7769 2.42803
67.8121 2.47542
67.8473 2.52453
67.8826 2.57545
67.9178 2.62828
67.9455 2.67121
67.9732 2.71542
68.0008 2.76097
68.0285 2.80793
68.0562 2.85635
68.0839 2.90630
68.1116 2.95784
68.1392 3.01105
68.1669 3.06602
68.1946 3.12278
68.2223 3.18146
68.2500 3.24212
68.2777 3.30488
68.3053 3.36982
68.3330 3.43705
68.3607 3.50669
68.3884 3.57887
68.4161 3.65369
68.4437 3.73128
68.4714 3.81181
68.4991 3.89546
68.5268 3.98232
68.5545 4.07260
68.5822 4.16650
68.6098 4.26424
68.6375 4.36597
68.6652 4.47195
68.6929 4.58243
68.7206 4.69772
68.7483 4.81802
68.7759 4.94367
68.8036 5.07501
68.8313 5.21245
68.8590 5.35626
68.8867 5.50692
68.9143 5.66487
68.9420 5.83067
68.9697 6.00472
68.9974 6.18767
69.0251 6.38014
69.0528 6.58289
69.0804 6.79652
69.1081 7.02192
69.1358 7.25999
69.1635 7.51171
69.1912 7.77819
69.2188 8.06061
69.2465 8.36031
69.2792 8.73890
69.3120 9.14632
69.3447 9.58593
69.3774 10.0610
69.4101 10.5760
69.4428 11.1351
69.4755 11.7441
69.5082 12.4090
69.5359 13.0209
69.5636 13.6830
69.5913 14.4012
69.6190 15.1825
69.6467 16.0346
69.6743 16.9667
69.7020 17.9894
69.7297 19.1155
69.7435 19.7224
69.7574 20.3606
69.7712 21.0329
69.7851 21.7419
69.7989 22.4904
69.8127 23.2817
69.8266 24.1193
69.8404 25.0071
69.8543 25.9495
69.8681 26.9515
69.8819 28.0187
69.8958 29.1573
69.9096 30.3747
69.9235 31.6791
69.9373 33.0800
69.9511 34.5886
69.9625 35.9126
69.9738 37.3243
69.9851 38.8354
69.9964 40.4542
70.0078 42.1957
70.0191 44.0713
70.0304 46.1007
70.0417 48.2997
70.0531 50.6944
70.0644 53.3066
70.0757 56.1711
70.0870 59.3181
70.0984 62.7940
70.1097 66.6400
70.1210 70.9140
70.1323 75.6793
70.1393 78.8699
70.1462 82.2852
70.1531 85.9500
70.1600 89.8859
70.1669 94.1167
70.1739 98.6678
70.1808 103.567
70.1877 108.843
70.1946 114.537
70.2016 120.665
70.2085 127.272
70.2154 134.396
70.2223 142.077
70.2292 150.359
70.2362 159.286
70.2431 168.906
70.2500 179.268
70.2569 190.423
70.2638 202.425
70.2708 215.328
70.2777 229.189
70.2846 244.065
70.2915 260.014
70.2984 277.095
70.3054 295.367
70.3123 314.888
70.3192 335.715
70.3261 357.903
70.3330 381.507
70.3400 406.577
70.3469 433.161
70.3538 461.301
70.3626 499.437
70.3714 540.222
70.3802 583.702
70.3890 629.902
70.3978 678.826
70.4067 730.450
70.4155 784.722
70.4243 841.493
70.4381 935.739
70.4520 1035.34
70.4658 1139.52
70.4796 1247.22
70.5073 1467.92
70.5350 1685.00
70.5501 1796.85
70.5652 1900.90
70.5790 1987.35
70.5929 2063.44
70.6070 2128.68
70.6211 2179.97
70.6301 2204.98
70.6392 2223.54
70.6482 2235.48
70.6572 2240.68
70.6600 2240.91
70.6690 2237.24
70.6781 2226.80
70.6871 2209.71
70.6962 2186.14
70.7052 2156.46
70.7142 2120.85
70.7232 2079.66
70.7322 2033.27
70.7417 1979.07
70.7512 1920.07
70.7702 1790.07
70.7892 1648.00
70.8082 1498.84
70.8324 1305.81
70.8566 1117.34
70.8661 1046.04
70.8756 976.936
70.8851 910.156
70.8946 846.085
70.9041 784.777
70.9136 726.505
70.9231 671.248
70.9326 619.182
70.9421 570.218
70.9516 524.449
70.9612 481.736
70.9707 442.100
70.9802 405.367
70.9897 371.506
70.9992 340.353
71.0087 311.774
71.0164 290.185
71.0242 270.147
71.0320 251.575
71.0398 234.409
71.0476 218.522
71.0553 203.856
71.0631 190.332
71.0709 177.887
71.0787 166.414
71.0864 155.860
71.0942 146.155
71.1020 137.244
71.1098 129.044
71.1175 121.518
71.1253 114.591
71.1331 108.230
71.1426 101.134
71.1521 94.7294
71.1616 88.9292
71.1711 83.6806
71.1806 78.9133
71.1901 74.5846
71.1996 70.6380
71.2091 67.0395
71.2186 63.7441
71.2281 60.7255
71.2377 57.9476
71.2472 55.3905
71.2567 53.0256
71.2662 50.8377
71.2757 48.8042
71.2852 46.9138
71.2947 45.1485
71.3042 43.4998
71.3137 41.9535
71.3232 40.5033
71.3327 39.1376
71.3422 37.8520
71.3612 35.4893
71.3802 33.3704
71.3992 31.4594
71.4182 29.7274
71.4373 28.1509
71.4554 26.7726
71.4736 25.5040
71.4917 24.3330
71.5098 23.2498
71.5280 22.2443
71.5461 21.3101
71.5643 20.4392
71.5824 19.6267
71.6006 18.8666
71.6187 18.1551
71.6369 17.4874
71.6550 16.8604
71.6732 16.2703
71.6913 15.7147
71.7094 15.1905
71.7276 14.6958
71.7466 14.2064
71.7656 13.7445
71.7846 13.3081
71.8036 12.8952
71.8226 12.5044
71.8416 12.1339
71.8607 11.7826
71.8797 11.4489
71.9177 10.8304
71.9557 10.2702
71.9937 9.76119
72.0317 9.29771
72.0698 8.87437
72.1078 8.48692
72.1458 8.13158
72.1838 7.80504
72.2218 7.50445
72.2599 7.22728
72.2979 6.97134
72.3359 6.73474
72.3739 6.51563
72.4119 6.31255
72.4499 6.12415
72.4880 5.94922
72.5260 5.78667
72.5640 5.63554
72.6020 5.49496
72.6400 5.36415
72.6781 5.24239
72.7161 5.12906
72.7541 5.02357
72.7921 4.92541
72.8301 4.83410
72.8682 4.74921
72.9062 4.67035
72.9442 4.59719
72.9632 4.56262
72.9822 4.52935
73.0012 4.49734
73.0202 4.46656
73.0392 4.43698
73.0583 4.40856
73.0773 4.38127
73.0963 4.35509
73.1153 4.32999
73.1343 4.30593
73.1533 4.28291
73.1723 4.26088
73.1913 4.23984
73.2103 4.21975
73.2293 4.20060
73.2483 4.18237
73.2829 4.15150
73.3175 4.12349
73.3520 4.09823
73.3866 4.07566
73.4212 4.05566
73.4557 4.03819
73.4903 4.02315
73.5249 4.01050
73.5387 4.00610
73.5586 4.00041
73.5784 3.99548
73.5983 3.99129
73.6182 3.98784
73.6372 3.98522
73.6666 3.98247
73.6934 3.98132
73.7201 3.98146
73.7469 3.98286
73.7737 3.98551
73.7927 3.98815
73.8117 3.99142
73.8307 3.99531
73.8497 3.99982
73.8688 4.00495
73.8878 4.01070
73.9068 4.01706
73.9258 4.02404
73.9448 4.03164
73.9638 4.03985
73.9828 4.04867
74.0018 4.05811
74.0208 4.06817
74.0398 4.07885
74.0589 4.09015
74.0779 4.10207
74.0969 4.11462
74.1159 4.12780
74.1349 4.14161
74.1539 4.15605
74.1729 4.17114
74.1919 4.18687
74.2109 4.20325
74.2299 4.22028
74.2489 4.23798
74.2680 4.25634
74.2870 4.27536
74.3060 4.29507
74.3250 4.31546
74.3440 4.33654
74.3820 4.38082
74.4200 4.42796
74.4581 4.47804
74.4961 4.53114
74.5341 4.58734
74.5721 4.64675
74.6101 4.70947
74.6482 4.77561
74.6862 4.84528
74.7242 4.91863
74.7622 4.99580
74.8002 5.07694
74.8382 5.16221
74.8763 5.25179
74.9143 5.34587
74.9523 5.44465
74.9903 5.54837
75.0283 5.65724
75.0664 5.77153
75.1044 5.89151
75.1424 6.01748
75.1804 6.14976
75.2184 6.28869
75.2565 6.43463
75.2945 6.58800
75.3325 6.74922
75.3705 6.91876
75.4085 7.09713
75.4466 7.28487
75.4846 7.48258
75.5226 7.69090
75.5606 7.91054
75.5986 8.14221
75.6367 8.38684
75.6747 8.64530
75.7127 8.91858
75.7507 9.20776
75.7887 9.51405
75.8268 9.83875
75.8648 10.1833
75.9028 10.5492
75.9408 10.9384
75.9788 11.3528
76.0168 11.7945
76.0549 12.2659
76.0929 12.7697
76.1309 13.3088
76.1689 13.8867
76.2069 14.5071
76.2450 15.1743
76.2830 15.8930
76.3210 16.6686
76.3590 17.5073
76.3970 18.4163
76.4351 19.4035
76.4731 20.4783
76.5111 21.6511
76.5491 22.9350
76.5681 23.6230
76.5871 24.3443
76.6061 25.1012
76.6252 25.8961
76.6442 26.7315
76.6632 27.6105
76.6822 28.5360
76.7012 29.5115
76.7202 30.5408
76.7392 31.6279
76.7582 32.7773
76.7772 33.9941
76.7962 35.2836
76.8152 36.6514
76.8308 37.8350
76.8464 39.0793
76.8619 40.3903
76.8775 41.7714
76.8930 43.2296
76.9086 44.7691
76.9241 46.3974
76.9397 48.1217
76.9552 49.9513
76.9708 51.8930
76.9863 53.9594
77.0019 56.1591
77.0175 58.5077
77.0330 61.0167
77.0486 63.7040
77.0641 66.5882
77.0831 70.4135
77.1021 74.6116
77.1211 79.2378
77.1401 84.3587
77.1497 87.1309
77.1592 90.0556
77.1687 93.1518
77.1782 96.4275
77.1877 99.9056
77.1972 103.596
77.2067 107.528
77.2162 111.713
77.2257 116.185
77.2352 120.962
77.2447 126.085
77.2542 131.575
77.2637 137.481
77.2732 143.833
77.2827 150.689
77.2922 158.085
77.3017 166.092
77.3112 174.754
77.3207 184.157
77.3302 194.354
77.3398 205.446
77.3493 217.497
77.3588 230.613
77.3683 244.893
77.3760 257.532
77.3838 271.088
77.3916 285.629
77.3994 301.204
77.4071 317.925
77.4149 335.849
77.4227 355.055
77.4305 375.596
77.4383 397.608
77.4460 421.149
77.4538 446.304
77.4616 473.124
77.4694 501.762
77.4771 532.228
77.4849 564.682
77.4927 599.121
77.5022 644.136
77.5117 692.370
77.5212 744.036
77.5307 799.120
77.5402 857.812
77.5497 920.037
77.5592 985.947
77.5687 1055.39
77.5782 1128.47
77.5877 1204.95
77.5972 1284.86
77.6067 1367.86
77.6258 1542.59
77.6448 1726.74
77.7070 2353.95
77.7260 2536.32
77.7450 2705.44
77.7640 2856.14
77.7735 2922.99
77.7830 2983.43
77.7966 3057.86
77.8102 3116.76
77.8238 3159.05
77.8374 3183.95
77.8500 3191.10
77.8636 3181.55
77.8772 3154.21
77.8908 3109.58
77.9044 3048.49
77.9184 2970.11
77.9323 2877.20
77.9462 2771.35
77.9601 2654.58
77.9750 2520.32
77.9898 2378.33
78.0195 2081.08
78.0491 1781.31
78.0639 1635.45
78.0788 1494.60
78.0976 1324.37
78.1071 1243.65
78.1165 1166.22
78.1259 1092.06
78.1354 1021.44
78.1448 954.259
78.1542 890.699
78.1617 843.176
78.1691 797.889
78.1765 754.691
78.1839 713.666
78.1913 674.660
78.1987 637.729
78.2061 602.766
78.2135 569.710
78.2210 538.456
78.2284 509.022
78.2358 481.295
78.2432 455.202
78.2506 430.640
78.2580 407.600
78.2654 385.976
78.2728 365.695
78.2803 346.661
78.2877 328.855
78.2951 312.159
78.3025 296.553
78.3099 281.929
78.3173 268.265
78.3247 255.482
78.3322 243.522
78.3396 232.316
78.3470 221.844
78.3544 212.041
78.3618 202.861
78.3692 194.249
78.3766 186.188
78.3840 178.628
78.3915 171.533
78.4036 160.829
78.4157 151.157
78.4279 142.392
78.4400 134.429
78.4521 127.175
78.4642 120.549
78.4764 114.481
78.4885 108.909
78.5006 103.777
78.5128 99.0391
78.5249 94.6531
78.5370 90.5828
78.5492 86.7965
78.5613 83.2663
78.5734 79.9678
78.5855 76.8794
78.6004 73.3616
78.6152 70.0995
78.6300 67.0668
78.6449 64.2428
78.6597 61.6039
78.6745 59.1363
78.6893 56.8216
78.7042 54.6494
78.7190 52.6050
78.7338 50.6792
78.7486 48.8626
78.7635 47.1477
78.7931 43.9890
78.8228 41.1505
78.8551 38.3679
78.8875 35.8688
78.9198 33.6149
78.9522 31.5750
78.9845 29.7211
79.0169 28.0312
79.0492 26.4863
79.0815 25.0701
79.1112 23.8721
79.1409 22.7611
79.1705 21.7283
79.2002 20.7664
79.2298 19.8688
79.2595 19.0302
79.2891 18.2454
79.3188 17.5097
79.3484 16.8189
79.3781 16.1697
79.4077 15.5588
79.4374 14.9831
79.4670 14.4397
79.4967 13.9267
79.5560 12.9824
79.6153 12.1345
79.6746 11.3703
79.7339 10.6791
79.7932 10.0520
79.8525 9.48099
79.9118 8.95983
79.9711 8.48270
80.0304 8.04494
80.0817 7.69520
80.1329 7.36924
80.1841 7.06490
80.2353 6.78032
80.2865 6.51367
80.3377 6.26350
80.3890 6.02846
80.4402 5.80740
80.4914 5.59917
80.5426 5.40285
80.6450 5.04252
80.7475 4.72018
80.8499 4.43073
80.9092 4.27642
80.9685 4.13097
81.0871 3.86394
81.2057 3.62506
81.3244 3.41051
81.4430 3.21711
81.5616 3.04218
81.6802 2.88347
81.7988 2.73908
81.9012 2.62468
82.0037 2.51890
82.1061 2.42084
82.2085 2.32969
82.3110 2.24473
82.4134 2.16545
82.5158 2.09142
82.6183 2.02222
82.7207 1.95744
82.8231 1.89675
83.0280 1.78631
83.2329 1.68867
83.4378 1.60201
83.6750 1.51339
83.9122 1.43555
84.1494 1.36691
84.3866 1.30619
84.6239 1.25233
84.8611 1.20443
85.0983 1.16177
85.3355 1.12370
85.5727 1.08971
85.8100 1.05934
86.0472 1.03221
86.2844 1.00798
86.5216 0.986376
86.7588 0.967142
86.9961 0.950066
87.2333 0.934965
87.4705 0.921675
87.7077 0.910056
87.9449 0.899985
88.1822 0.891353
88.4194 0.884067
88.6566 0.878045
88.8938 0.873216
89.1310 0.869517
89.3898 0.866708
89.6486 0.865122
89.8858 0.864699
90.1230 0.865231
90.3603 0.866690
90.5975 0.869057
90.7161 0.870576
90.8347 0.872316
90.9533 0.874276
91.0719 0.876455
91.1905 0.878853
91.3091 0.881467
91.4278 0.884296
91.5464 0.887341
91.6650 0.890604
91.7836 0.894089
91.9022 0.897798
92.0208 0.901729
92.1394 0.905884
92.2580 0.910263
92.3766 0.914868
92.4360 0.917257
92.4953 0.919703
92.5546 0.922207
92.6139 0.924769
92.6732 0.927390
92.7325 0.930069
92.7918 0.932808
92.8511 0.935607
92.9104 0.938466
92.9697 0.941385
93.0290 0.944366
93.0883 0.947408
93.1476 0.950513
93.2069 0.953680
93.2662 0.956910
93.3255 0.960204
93.3848 0.963562
93.4441 0.966985
93.5115 0.970955
93.5789 0.975010
93.6463 0.979151
93.7137 0.983379
93.7811 0.987697
93.8485 0.992104
93.8822 0.994343
93.9159 0.996603
93.9496 0.998888
93.9833 1.00120
94.0156 1.00343
94.0480 1.00569
94.0803 1.00797
94.1127 1.01028
94.1315 1.01163
94.1504 1.01299
94.1693 1.01436
94.1881 1.01574
94.2259 1.01851
94.2636 1.02132
94.2987 1.02395
94.3337 1.02661
94.3687 1.02930
94.4038 1.03202
94.4739 1.03754
94.5440 1.04317
94.6140 1.04891
94.6841 1.05477
94.7542 1.06075
94.8243 1.06685
94.8836 1.07210
94.9429 1.07745
95.0022 1.08288
95.0615 1.08840
95.1208 1.09402
95.1801 1.09974
95.2394 1.10555
95.2987 1.11145
95.3581 1.11746
95.4174 1.12357
95.4767 1.12978
95.5360 1.13609
95.5953 1.14251
95.6546 1.14904
95.7139 1.15568
95.7732 1.16243
95.8325 1.16929
95.8918 1.17627
95.9511 1.18337
96.0104 1.19059
96.0697 1.19793
96.1290 1.20540
96.1883 1.21299
96.2476 1.22071
96.3069 1.22856
96.3662 1.23655
96.4256 1.24468
96.4849 1.25295
96.6035 1.26991
96.7221 1.28747
96.8407 1.30565
96.9593 1.32447
97.0779 1.34398
97.1965 1.36418
97.3151 1.38512
97.4337 1.40684
97.5523 1.42936
97.6710 1.45272
97.7896 1.47697
97.9082 1.50215
98.0268 1.52831
98.1454 1.55549
98.2640 1.58375
98.3826 1.61316
98.5012 1.64377
98.6198 1.67567
98.7924 1.72447
98.9649 1.77628
99.1374 1.83139
99.3099 1.89010
99.4824 1.95275
99.6550 2.01968
99.8275 2.09128
100.000 2.16797
100.147 2.23767
100.294 2.31182
100.440 2.39087
100.587 2.47523
100.734 2.56546
100.880 2.66200
101.027 2.76552
101.174 2.87674
101.321 2.99655
101.467 3.12570
101.614 3.26531
101.761 3.41657
101.907 3.58083
102.054 3.75969
102.201 3.95495
102.348 4.16875
102.494 4.40372
102.568 4.52998
102.641 4.66245
102.714 4.80193
102.788 4.94852
102.861 5.10317
102.934 5.26603
103.008 5.43817
103.081 5.62008
103.155 5.81253
103.228 6.01607
103.301 6.23219
103.375 6.46133
103.448 6.70523
103.521 6.96449
103.621 7.34639
103.721 7.76361
103.822 8.22158
103.922 8.72488
104.022 9.28115
104.122 9.89720
104.172 10.2307
104.222 10.5828
104.272 10.9550
104.322 11.3489
104.395 11.9699
104.468 12.6464
104.542 13.3875
104.615 14.1993
104.688 15.0937
104.762 16.0799
104.835 17.1740
104.908 18.3890
104.945 19.0492
104.982 19.7476
105.019 20.4873
105.055 21.2716
105.092 22.1041
105.129 22.9890
105.165 23.9309
105.202 24.9318
105.239 26.0030
105.275 27.1480
105.312 28.3738
105.349 29.6847
105.385 31.0966
105.422 32.6163
105.459 34.2552
105.495 36.0214
105.535 38.1253
105.575 40.4216
105.615 42.9417
105.655 45.7163
105.695 48.7819
105.735 52.1817
105.775 55.9676
105.795 58.0244
105.815 60.2022
105.852 64.5473
105.871 66.9140
105.889 69.4061
105.907 72.0623
105.926 74.8665
105.944 77.8468
105.962 81.0191
105.981 84.4199
105.999 88.0324
106.017 91.9187
106.036 96.0618
106.054 100.536
106.072 105.326
106.091 110.492
106.109 116.077
106.122 120.461
106.136 125.080
106.149 130.030
106.162 135.262
106.176 140.884
106.189 146.844
106.202 153.220
106.216 160.049
106.229 167.433
106.242 175.311
106.256 183.855
106.269 192.997
106.282 202.941
106.296 213.611
106.309 225.157
106.322 237.664
106.331 246.927
106.341 256.728
106.350 267.101
106.359 277.962
106.368 289.585
106.377 301.897
106.387 314.939
106.396 328.600
106.405 343.225
106.414 358.717
106.423 375.122
106.432 392.296
106.442 410.665
106.451 430.099
106.460 450.647
106.469 472.119
106.478 495.036
106.487 519.219
106.497 544.717
106.506 571.277
106.515 599.527
106.524 628.894
106.533 660.060
106.542 692.382
106.552 726.598
106.561 762.384
106.579 838.297
106.597 920.528
106.616 1008.99
106.637 1121.60
106.659 1241.88
106.681 1368.72
106.702 1500.58
106.776 1955.00
106.795 2067.03
106.814 2171.99
106.833 2268.41
106.852 2354.34
106.864 2403.50
106.876 2447.04
106.889 2484.54
106.901 2515.43
106.913 2539.91
106.926 2557.47
106.938 2567.92
106.950 2571.18
106.962 2567.27
106.975 2556.16
106.987 2537.97
106.999 2512.87
107.012 2481.12
107.024 2443.02
107.036 2398.94
107.048 2349.28
107.071 2247.04
107.093 2131.11
107.115 2004.68
107.137 1871.61
107.183 1588.24
107.205 1447.55
107.228 1311.77
107.251 1182.28
107.274 1060.58
107.285 1002.75
107.296 947.716
107.308 894.578
107.319 844.303
107.336 774.807
107.352 710.842
107.369 651.877
107.385 597.753
107.393 572.292
107.402 547.974
107.410 524.765
107.418 502.892
107.426 481.787
107.435 461.924
107.443 442.780
107.451 424.782
107.463 401.204
107.474 379.215
107.485 358.723
107.497 339.793
107.508 322.002
107.519 305.576
107.531 290.139
107.542 275.884
107.553 262.483
107.565 250.101
107.576 238.450
107.587 227.673
107.599 217.519
107.610 208.114
107.622 199.239
107.633 191.003
107.644 183.216
107.656 175.914
107.667 169.059
107.678 162.671
107.690 156.606
107.701 150.942
107.712 145.553
107.724 140.509
107.735 135.698
107.747 131.146
107.769 122.782
107.792 115.244
107.815 108.423
107.834 103.013
107.854 98.0473
107.874 93.4535
107.893 89.1939
107.913 85.2354
107.932 81.5491
107.952 78.1094
107.972 74.8941
107.991 71.8685
108.011 69.0454
108.030 66.3935
108.050 63.8987
108.070 61.5484
108.089 59.3313
108.109 57.2374
108.128 55.2574
108.151 53.0864
108.174 51.0552
108.197 49.1436
108.219 47.3421
108.242 45.6350
108.265 44.0297
108.288 42.5114
108.310 41.0740
108.333 39.7058
108.356 38.4137
108.401 36.0203
108.447 33.8498
108.492 31.8834
108.538 30.0885
108.583 28.4525
108.628 26.9539
108.674 25.5776
108.719 24.3079
108.765 23.1392
108.810 22.0586
108.855 21.0575
108.889 20.3733
108.922 19.7266
108.955 19.1111
108.988 18.5282
109.021 17.9724
109.054 17.4451
109.087 16.9431
109.120 16.4645
109.186 15.5712
109.252 14.7562
109.318 14.0108
109.384 13.3284
109.430 12.8905
109.475 12.4777
109.520 12.0867
109.566 11.7174
109.611 11.3669
109.657 11.0354
109.702 10.7209
109.748 10.4222
109.793 10.1377
109.838 9.86784
109.884 9.61098
109.929 9.36636
109.975 9.13274
110.020 8.91048
110.066 8.69840
110.111 8.49593
110.156 8.30211
110.202 8.11728
110.247 7.94015
110.293 7.77107
110.338 7.60888
110.384 7.45391
110.429 7.30545
110.474 7.16316
110.520 7.02643
110.565 6.89558
110.611 6.77002
110.656 6.64951
110.702 6.53355
110.747 6.42242
110.792 6.31565
110.838 6.21304
110.883 6.11420
110.929 6.01937
110.974 5.92798
111.020 5.84026
111.065 5.75569
111.111 5.67449
111.156 5.59634
111.201 5.52112
111.247 5.44854
111.292 5.37882
111.338 5.31169
111.383 5.24704
111.429 5.18465
111.474 5.12469
111.519 5.06695
111.565 5.01133
111.614 4.95292
111.664 4.89686
111.714 4.84307
111.763 4.79157
111.813 4.74207
111.862 4.69469
111.912 4.64917
111.961 4.60562
112.007 4.56718
112.052 4.53030
112.098 4.49486
112.143 4.46079
112.188 4.42800
112.211 4.41213
112.234 4.39658
112.257 4.38135
112.279 4.36643
112.302 4.35181
112.325 4.33750
112.347 4.32343
112.370 4.30971
112.393 4.29628
112.416 4.28314
112.438 4.27023
112.461 4.25765
112.484 4.24534
112.506 4.23331
112.529 4.22149
112.552 4.20999
112.575 4.19875
112.597 4.18777
112.620 4.17704
112.643 4.16656
112.665 4.15633
112.688 4.14635
112.717 4.13395
112.746 4.12197
112.775 4.11038
112.804 4.09916
112.833 4.08831
112.862 4.07783
112.891 4.06770
112.919 4.05793
112.942 4.05047
112.965 4.04326
112.988 4.03625
113.010 4.02946
113.033 4.02287
113.056 4.01649
113.078 4.01031
113.101 4.00433
113.124 3.99852
113.147 3.99294
113.169 3.98755
113.192 3.98235
113.215 3.97735
113.237 3.97254
113.260 3.96791
113.283 3.96347
113.308 3.95884
113.332 3.95442
113.357 3.95022
113.382 3.94625
113.407 3.94247
113.432 3.93891
113.456 3.93556
113.481 3.93242
113.504 3.92971
113.527 3.92719
113.549 3.92483
113.572 3.92265
113.595 3.92062
113.617 3.91877
113.663 3.91557
113.708 3.91302
113.754 3.91112
113.799 3.90987
113.845 3.90925
113.884 3.90923
113.923 3.90967
113.962 3.91057
114.002 3.91193
114.041 3.91375
114.080 3.91601
114.119 3.91873
114.158 3.92188
114.237 3.92954
114.315 3.93894
114.394 3.95011
114.472 3.96300
114.563 3.98011
114.654 3.99955
114.745 4.02131
114.836 4.04537
114.927 4.07180
115.018 4.10058
115.108 4.13174
115.199 4.16528
115.278 4.19625
115.356 4.22906
115.435 4.26373
115.513 4.30025
115.592 4.33871
115.670 4.37912
115.749 4.42150
115.827 4.46585
115.906 4.51233
115.984 4.56093
116.063 4.61171
116.141 4.66464
116.219 4.71993
116.298 4.77757
116.376 4.83762
116.455 4.90008
116.546 4.97571
116.637 5.05490
116.728 5.13779
116.818 5.22443
116.909 5.31515
117.000 5.40994
117.091 5.50917
117.182 5.61281
117.273 5.72131
117.364 5.83476
117.454 5.95341
117.545 6.07735
117.636 6.20715
117.727 6.34279
117.818 6.48489
117.909 6.63347
118.000 6.78921
118.090 6.95234
118.181 7.12327
118.272 7.30225
118.363 7.49016
118.454 7.68709
118.545 7.89405
118.636 8.11118
118.726 8.33962
118.817 8.57984
118.908 8.83263
118.999 9.09851
119.090 9.37897
119.181 9.67441
119.272 9.98654
119.362 10.3159
119.486 10.7958
119.610 11.3143
119.734 11.8752
119.858 12.4833
119.982 13.1441
120.106 13.8642
120.230 14.6509
120.292 15.0720
120.354 15.5122
120.445 16.1971
120.535 16.9315
120.626 17.7202
120.717 18.5678
120.808 19.4823
120.899 20.4686
120.990 21.5367
121.081 22.6935
121.171 23.9516
121.262 25.3217
121.353 26.8175
121.444 28.4529
121.535 30.2498
121.626 32.2256
121.671 33.2913
121.717 34.4097
121.762 35.5869
121.807 36.8270
121.853 38.1376
121.898 39.5178
121.944 40.9792
121.989 42.5214
122.035 44.1576
122.080 45.8880
122.126 47.7237
122.171 49.6736
122.216 51.7518
122.262 53.9598
122.307 56.3139
122.353 58.8270
122.398 61.5199
122.444 64.3972
122.489 67.4830
122.534 70.7979
122.580 74.3735
122.625 78.2202
122.671 82.3753
122.716 86.8724
122.762 91.7608
122.807 97.0628
122.852 102.838
122.898 109.144
122.943 116.063
122.989 123.639
123.034 131.996
123.080 141.198
123.125 151.407
123.148 156.912
123.170 162.717
123.193 168.843
123.216 175.314
123.239 182.153
123.261 189.389
123.284 197.084
123.307 205.204
123.329 213.815
123.352 222.954
123.375 232.706
123.398 243.027
123.420 254.008
123.443 265.696
123.466 278.202
123.489 291.475
123.511 305.627
123.534 320.723
123.557 336.831
123.579 354.021
123.602 372.365
123.625 391.937
123.652 416.824
123.678 443.560
123.705 472.462
123.732 503.421
123.759 536.759
123.786 572.296
123.813 610.191
123.839 650.443
123.864 689.101
123.888 729.600
123.913 771.819
123.937 815.590
123.986 906.854
124.035 1000.76
124.072 1073.50
124.110 1144.09
124.148 1210.44
124.186 1270.37
124.224 1321.73
124.242 1343.56
124.261 1362.52
124.280 1378.42
124.299 1391.09
124.318 1400.40
124.337 1406.22
124.360 1408.58
124.379 1406.53
124.398 1400.94
124.417 1391.83
124.436 1379.38
124.455 1363.60
124.474 1344.83
124.493 1323.05
124.512 1298.73
124.550 1242.92
124.587 1179.50
124.625 1110.68
124.663 1038.80
124.725 919.436
124.787 804.048
124.818 749.319
124.848 697.220
124.879 648.028
124.910 602.049
124.941 559.585
124.971 520.283
125.002 483.813
125.032 450.297
125.062 419.366
125.093 391.058
125.123 365.009
125.154 341.211
125.184 319.331
125.215 299.341
125.245 280.950
125.276 264.126
125.306 248.621
125.336 234.407
125.367 221.316
125.397 209.243
125.428 198.058
125.458 187.747
125.489 178.167
125.519 169.309
125.550 161.054
125.580 153.400
125.610 146.268
125.641 139.613
125.671 133.376
125.702 127.560
125.732 122.095
125.763 116.986
125.793 112.172
125.823 107.662
125.854 103.416
125.884 99.4156
125.915 95.6294
125.945 92.0660
125.976 88.6867
126.006 85.4999
126.067 79.6111
126.128 74.3187
126.189 69.5302
126.249 65.1980
126.310 61.2539
126.371 57.6646
126.413 55.3888
126.454 53.2512
126.496 51.2361
126.537 49.3345
126.579 47.5380
126.620 45.8390
126.703 42.7065
126.786 39.8879
126.869 37.3425
126.952 35.0357
127.035 32.9390
127.096 31.5197
127.157 30.1918
127.218 28.9476
127.279 27.7823
127.340 26.6858
127.401 25.6545
127.461 24.6834
127.522 23.7693
127.583 22.9052
127.644 22.0888
127.766 20.5868
127.888 19.2371
128.009 18.0216
128.131 16.9216
128.253 15.9246
128.375 15.0168
128.496 14.1893
128.618 13.4319
128.740 12.7382
128.861 12.1012
128.983 11.5149
129.105 10.9733
129.227 10.4725
129.348 10.0077
129.470 9.57654
129.592 9.17534
129.714 8.80219
129.835 8.45406
129.957 8.12937
130.079 7.82565
130.201 7.54167
130.322 7.27541
130.444 7.02589
130.566 6.79144
130.688 6.57130
130.931 6.16917
131.175 5.81228
131.418 5.49466
131.662 5.21134
131.905 4.95813
132.149 4.73151
132.392 4.52851
132.636 4.34658
132.879 4.18356
133.078 4.06292
133.278 3.95294
133.477 3.85303
133.676 3.76248
133.875 3.68012
134.074 3.60537
134.274 3.53800
134.473 3.47773
134.672 3.42414
134.871 3.37702
135.270 3.30098
135.668 3.24792
136.067 3.21675
136.421 3.20694
136.841 3.21706
137.262 3.25125
137.683 3.31059
137.893 3.35021
138.103 3.39685
138.313 3.45086
138.524 3.51265
138.734 3.58271
138.944 3.66149
139.155 3.74934
139.365 3.84703
139.575 3.95609
139.785 4.07743
139.963 4.18989
140.140 4.31244
140.317 4.44594
140.494 4.59128
140.671 4.74953
140.760 4.83397
140.848 4.92208
140.937 5.01427
141.025 5.11053
141.114 5.21115
141.202 5.31634
141.280 5.41240
141.357 5.51231
141.435 5.61626
141.512 5.72432
141.590 5.83697
141.628 5.89511
141.667 5.95431
141.706 6.01489
141.745 6.07658
141.783 6.13956
141.822 6.20386
141.858 6.26490
141.894 6.32714
141.930 6.39062
141.966 6.45518
142.002 6.52122
142.038 6.58859
142.074 6.65731
142.110 6.72724
142.140 6.78777
142.171 6.84915
142.201 6.91180
142.232 6.97534
142.262 7.04021
142.292 7.10601
142.323 7.17297
142.353 7.24113
142.386 7.31695
142.420 7.39427
142.453 7.47311
142.486 7.55352
142.517 7.62881
142.547 7.70523
142.577 7.78332
142.608 7.86260
142.638 7.94363
142.669 8.02592
142.699 8.11003
142.730 8.19547
142.760 8.28282
142.791 8.37156
142.821 8.46201
142.851 8.55422
142.867 8.60131
142.882 8.64855
142.897 8.69625
142.912 8.74441
142.927 8.79305
142.943 8.84217
142.958 8.89178
142.973 8.94188
143.004 9.04391
143.034 9.14767
143.064 9.25388
143.095 9.36190
143.125 9.47250
143.156 9.58503
143.186 9.69989
143.217 9.81716
143.253 9.95923
143.289 10.1049
143.325 10.2542
143.360 10.4070
143.396 10.5641
143.432 10.7248
143.468 10.8902
143.504 11.0595
143.535 11.2069
143.565 11.3571
143.596 11.5113
143.626 11.6684
143.657 11.8298
143.687 11.9943
143.717 12.1633
143.748 12.3358
143.778 12.5129
143.809 12.6937
143.839 12.8795
143.870 13.0693
143.900 13.2643
143.931 13.4636
143.961 13.6678
143.991 13.8773
144.022 14.0927
144.052 14.3130
144.083 14.5397
144.113 14.7716
144.144 15.0104
144.174 15.2548
144.204 15.5057
144.235 15.7635
144.296 16.3012
144.357 16.8684
144.417 17.4693
144.478 18.1044
144.539 18.7788
144.600 19.4943
144.661 20.2547
144.722 21.0622
144.783 21.9238
144.844 22.8430
144.904 23.8250
144.965 24.8739
145.026 25.9997
145.087 27.2083
145.118 27.8472
145.148 28.5080
145.178 29.1937
145.209 29.9058
145.239 30.6480
145.270 31.4171
145.300 32.2195
145.331 33.0518
145.361 33.9212
145.391 34.8240
145.422 35.7650
145.452 36.7463
145.483 37.7738
145.513 38.8434
145.544 39.9648
145.574 41.1336
145.605 42.3607
145.635 43.6414
145.665 44.9836
145.696 46.3911
145.726 47.8733
145.757 49.4253
145.787 51.0623
145.818 52.7794
145.848 54.5938
145.878 56.5005
145.909 58.5124
145.939 60.6376
145.964 62.4688
145.989 64.3870
146.014 66.3981
146.039 68.5081
146.064 70.7238
146.089 73.0524
146.114 75.5018
146.138 78.0808
146.163 80.7987
146.188 83.6658
146.213 86.6936
146.238 89.8945
146.263 93.2821
146.288 96.8716
146.313 100.679
146.338 104.724
146.368 110.031
146.399 115.747
146.429 121.958
146.459 128.676
146.490 136.011
146.520 143.985
146.551 152.705
146.581 162.267
146.612 172.820
146.627 178.478
146.642 184.426
146.657 190.724
146.673 197.312
146.688 204.253
146.703 211.572
146.718 219.348
146.733 227.507
146.749 236.129
146.764 245.249
146.779 254.901
146.794 265.124
146.809 275.959
146.825 287.448
146.840 299.721
146.855 312.666
146.870 326.414
146.886 341.019
146.901 356.644
146.916 373.145
146.931 390.683
146.946 409.324
146.962 429.266
146.977 450.318
146.992 472.673
147.007 496.400
147.023 521.564
147.038 548.232
147.053 576.464
147.068 606.319
147.086 643.845
147.104 683.794
147.122 726.224
147.140 771.172
147.158 818.650
147.176 868.639
147.194 921.091
147.212 975.608
147.243 1073.54
147.273 1176.66
147.303 1284.00
147.334 1393.91
147.372 1532.48
147.410 1666.78
147.448 1792.19
147.467 1849.71
147.486 1902.59
147.504 1948.10
147.522 1988.65
147.540 2023.75
147.558 2052.85
147.576 2075.93
147.594 2092.45
147.612 2102.38
147.630 2105.51
147.644 2103.10
147.668 2089.91
147.691 2065.47
147.715 2030.31
147.738 1985.34
147.761 1931.09
147.785 1869.05
147.808 1799.87
147.831 1725.35
147.862 1619.66
147.893 1509.55
147.955 1285.79
147.989 1165.01
148.024 1050.11
148.041 994.987
148.058 942.164
148.075 891.442
148.092 842.907
148.107 803.508
148.121 765.743
148.136 729.616
148.150 695.120
148.165 662.239
148.179 630.947
148.194 601.209
148.208 572.985
148.223 546.229
148.237 520.890
148.252 496.915
148.266 474.248
148.281 452.831
148.295 432.605
148.310 413.511
148.324 395.493
148.339 378.491
148.353 362.451
148.368 347.317
148.382 333.036
148.397 319.559
148.411 306.837
148.426 294.823
148.440 283.473
148.455 272.746
148.469 262.603
148.484 253.006
148.498 243.922
148.527 227.160
148.556 212.130
148.576 202.691
148.596 193.882
148.615 185.650
148.635 177.984
148.655 170.765
148.675 163.992
148.694 157.630
148.714 151.676
148.734 146.041
148.754 140.728
148.774 135.714
148.793 131.000
148.833 122.296
148.872 114.476
148.901 109.230
148.930 104.358
148.959 99.8255
148.988 95.6019
149.017 91.6595
149.046 87.9742
149.075 84.5243
149.104 81.2902
149.133 78.2546
149.162 75.4017
149.191 72.7175
149.220 70.1892
149.278 65.5551
149.336 61.4257
149.394 57.7205
149.452 54.3914
149.510 51.3919
149.568 48.6825
149.626 46.2299
149.684 44.0056
149.742 41.9852
149.800 40.1508
149.853 38.6214
149.906 37.2190
149.958 35.9303
150.011 34.7459
150.064 33.6577
150.116 32.6588
150.169 31.7429
150.222 30.9045
150.275 30.1376
150.327 29.4408
150.380 28.8091
150.433 28.2393
150.485 27.7288
150.538 27.2753
150.591 26.8770
150.643 26.5323
150.728 26.0893
150.812 25.7788
150.897 25.5994
150.981 25.5536
151.049 25.6179
151.118 25.7772
151.187 26.0373
151.255 26.4046
151.324 26.8891
151.358 27.1785
151.392 27.5004
151.426 27.8586
151.461 28.2529
151.495 28.6879
151.529 29.1636
151.561 29.6442
151.592 30.1638
151.624 30.7265
151.656 31.3353
151.672 31.6601
151.687 31.9957
151.703 32.3444
151.719 32.7069
151.735 33.0837
151.751 33.4752
151.766 33.8820
151.782 34.3049
151.797 34.7075
151.811 35.1247
151.826 35.5569
151.840 36.0047
151.855 36.4688
151.869 36.9498
151.884 37.4484
151.898 37.9616
151.909 38.3774
151.921 38.8014
151.932 39.2375
151.943 39.6860
151.954 40.1476
151.965 40.6225
151.977 41.1112
151.988 41.6142
151.998 42.0993
152.013 42.7913
152.020 43.1498
152.027 43.5102
152.035 43.8827
152.042 44.2572
152.049 44.6444
152.056 45.0338
152.064 45.4363
152.071 45.8412
152.078 46.2600
152.085 46.6812
152.093 47.1169
152.100 47.5553
152.114 48.4653
152.125 49.1940
152.137 49.9462
152.148 50.7228
152.159 51.5248
152.170 52.3535
152.181 53.2098
152.193 54.0951
152.204 55.0106
152.218 56.2429
152.233 57.5314
152.247 58.8794
152.262 60.2907
152.276 61.7692
152.291 63.3194
152.305 64.9459
152.320 66.6540
152.334 68.4492
152.349 70.3378
152.363 72.3263
152.378 74.4222
152.392 76.6334
152.407 78.9688
152.421 81.4380
152.436 84.0332
152.450 86.8215
152.465 89.7602
152.479 92.8820
152.494 96.2024
152.508 99.7384
152.523 103.509
152.537 107.535
152.552 111.838
152.566 116.444
152.581 121.380
152.595 126.675
152.610 132.363
152.617 135.387
152.624 138.479
152.632 141.732
152.639 145.061
152.646 148.564
152.653 152.151
152.661 155.874
152.668 159.739
152.675 163.809
152.682 167.979
152.690 172.372
152.697 176.873
152.704 181.614
152.711 186.474
152.719 191.595
152.726 196.843
152.733 202.373
152.740 208.041
152.748 214.013
152.755 220.134
152.762 226.582
152.769 233.189
152.777 240.148
152.784 247.276
152.798 262.468
152.813 278.837
152.827 296.457
152.842 315.400
152.856 335.739
152.871 357.541
152.885 380.871
152.900 405.787
152.914 432.340
152.929 460.572
152.943 490.515
152.958 522.188
152.972 555.594
152.987 590.722
153.001 627.542
153.016 666.002
153.030 706.032
153.045 747.539
153.059 790.404
153.074 834.485
153.103 925.607
153.132 1018.95
153.171 1147.32
153.211 1270.44
153.229 1324.56
153.248 1375.46
153.266 1422.48
153.285 1464.95
153.311 1517.02
153.325 1538.45
153.338 1556.66
153.351 1571.49
153.365 1582.82
153.378 1590.58
153.391 1594.69
153.400 1595.39
153.418 1591.87
153.432 1584.16
153.447 1572.28
153.461 1556.30
153.476 1536.37
153.490 1512.51
153.504 1485.24
153.519 1454.68
153.533 1421.08
153.553 1370.21
153.573 1314.92
153.593 1256.06
153.613 1194.81
153.652 1069.84
153.690 943.973
153.728 827.148
153.746 771.018
153.765 717.270
153.783 665.592
153.802 616.742
153.820 570.579
153.839 527.189
153.858 484.707
153.878 445.307
153.897 408.935
153.916 375.500
153.936 344.881
153.955 316.935
153.975 291.501
153.984 279.673
153.994 268.410
154.005 256.721
154.015 245.652
154.026 235.173
154.036 225.256
154.047 215.875
154.058 207.001
154.068 198.609
154.079 190.673
154.089 183.169
154.100 176.071
154.111 169.358
154.121 163.007
154.132 156.997
154.142 151.309
154.163 140.868
154.183 132.163
154.202 124.303
154.222 117.153
154.241 110.637
154.261 104.685
154.280 99.2359
154.299 94.2355
154.319 89.6361
154.338 85.3746
154.358 81.4576
154.377 77.8295
154.396 74.4618
154.416 71.3292
154.435 68.4092
154.455 65.6822
154.474 63.1307
154.494 60.7272
154.513 58.4825
154.532 56.3717
154.552 54.3836
154.591 50.7378
154.629 47.4776
154.668 44.5410
154.707 41.8980
154.746 39.5031
154.785 37.3250
154.820 35.5096
154.855 33.8348
154.891 32.2860
154.926 30.8503
154.961 29.5167
154.996 28.2754
155.032 27.1177
155.067 26.0360
155.102 25.0236
155.138 24.0746
155.173 23.1835
155.208 22.3456
155.244 21.5567
155.279 20.8128
155.349 19.4486
155.388 18.7582
155.427 18.1093
155.505 16.9168
155.582 15.8499
155.660 14.8923
155.738 14.0268
155.815 13.2437
155.893 12.5307
155.971 11.8812
156.038 11.3641
156.105 10.8842
156.172 10.4376
156.239 10.0219
156.306 9.63283
156.373 9.26923
156.440 8.92778
156.507 8.60757
156.574 8.30595
156.641 8.02186
156.775 7.50130
156.910 7.03588
157.044 6.61777
157.199 6.18391
157.354 5.79682
157.510 5.44948
157.665 5.13635
157.820 4.85284
157.976 4.59514
158.131 4.36008
158.286 4.14503
158.427 3.96498
158.569 3.79803
158.710 3.64271
158.851 3.49777
158.992 3.36228
159.133 3.23545
159.275 3.11656
159.416 3.00500
159.557 2.90000
159.698 2.80110
159.980 2.61966
160.263 2.45731
160.545 2.31137
160.856 2.16696
161.166 2.03722
161.477 1.92007
161.788 1.81385
162.098 1.71714
162.409 1.62882
162.720 1.54793
163.030 1.47383
163.341 1.40552
163.651 1.34210
163.962 1.28330
164.273 1.22871
164.583 1.17790
164.894 1.13052
165.204 1.08626
165.515 1.04483
165.826 1.00598
166.136 0.969505
166.447 0.935209
166.758 0.902906
167.068 0.872959
167.146 0.867318
167.185 0.865883
167.223 0.866395
167.262 0.870320
167.282 0.874248
167.301 0.880005
167.321 0.888100
167.340 0.899156
167.359 0.913936
167.379 0.933358
167.398 0.958666
167.418 0.990902
167.427 1.01013
167.437 1.03170
167.447 1.05584
167.456 1.08281
167.466 1.11285
167.476 1.14625
167.486 1.18328
167.495 1.22428
167.505 1.26955
167.515 1.31944
167.524 1.37431
167.534 1.43454
167.544 1.50122
167.554 1.57339
167.563 1.65213
167.573 1.73786
167.583 1.83101
167.592 1.93204
167.602 2.04140
167.612 2.15954
167.621 2.28692
167.631 2.42401
167.641 2.57125
167.651 2.72910
167.660 2.89800
167.670 3.07838
167.680 3.27065
167.689 3.47521
167.699 3.69473
167.709 3.92510
167.719 4.16879
167.728 4.42610
167.738 4.69726
167.748 4.98250
167.757 5.28197
167.767 5.59580
167.777 5.92405
167.786 6.26673
167.796 6.62382
167.806 6.99523
167.825 7.78029
167.845 8.61999
167.864 9.51614
167.884 10.4557
167.903 11.4382
167.922 12.4579
167.961 14.5828
168.000 16.7714
168.000 32.7417
170.000 32.4430
200.000 28.5852
230.000 25.6079
250.000 23.8308
300.000 20.2942
350.000 17.9669
400.000 16.1581
450.000 14.7080
500.000 13.5172
600.000 11.6719
675.000 10.6118
720.000 10.0711
850.000 8.80089
1000.00 7.70980
1250.00 6.43822
1400.00 5.87613
1500.00 5.56112
1700.00 5.03406
2000.00 4.42781
2500.00 3.71487
3000.00 3.22660
3500.00 2.87335
4000.00 2.60463
4500.00 2.39340
5000.00 2.22424
6000.00 1.96875
6750.00 1.82620
7200.00 1.75276
8500.00 1.58422
10000.0 1.44461
12500.0 1.29050
14000.0 1.22544
15000.0 1.18621
17000.0 1.12202
20000.0 1.05082
25000.0 0.945742
30000.0 0.872686
35000.0 0.814828
40000.0 0.768938
50000.0 0.699330
50000.0 0.768397
60000.0 0.722919
80000.0 0.664125
91512.6 0.607828
91512.6 0.607828
100000 0.566324
120000 0.484291
150000 0.414399
200000 0.353755
250000 0.321882
299105 0.304468
299105 0.304468
300000 0.304150
350000 0.291632
400000 0.284124
450000 0.280163
500000 0.278830
600000 0.281959
611787 0.283064
700000 0.291328
800000 0.305698
832932 0.308398
832932 0.308398
900000 0.313898
905460 0.313057
905461 0.313057
1.00000E+06 0.298498
1.01546E+06 0.300039
1.01546E+06 0.300039
1.06833E+06 0.305309
1.06833E+06 0.305309
1.10000E+06 0.308465
1.20000E+06 0.319551
1.23388E+06 0.319358
1.23389E+06 0.319358
1.30000E+06 0.318983
1.31092E+06 0.314335
1.31092E+06 0.314334
1.31498E+06 0.312605
1.31498E+06 0.312604
1.31628E+06 0.312052
1.31628E+06 0.312052
1.32705E+06 0.307467
1.32705E+06 0.307466
1.32866E+06 0.306782
1.32866E+06 0.306781
1.34423E+06 0.300153
1.34423E+06 0.300153
1.40000E+06 0.276411
1.40269E+06 0.276071
1.40269E+06 0.276071
1.43351E+06 0.272176
1.43351E+06 0.272176
1.45103E+06 0.269961
1.45103E+06 0.269961
1.45725E+06 0.269175
1.45725E+06 0.269174
1.49452E+06 0.264464
1.49452E+06 0.264464
1.50000E+06 0.263771
1.50504E+06 0.262947
1.50504E+06 0.262947
1.51201E+06 0.261807
1.51201E+06 0.261807
1.51695E+06 0.260999
1.51695E+06 0.260999
1.55828E+06 0.254238
1.55829E+06 0.254238
1.57078E+06 0.252194
1.57078E+06 0.252194
1.60000E+06 0.247414
1.63543E+06 0.243357
1.63543E+06 0.243357
1.63684E+06 0.243196
1.63684E+06 0.243196
1.63996E+06 0.242839
1.63996E+06 0.242839
1.64388E+06 0.242390
1.64388E+06 0.242389
1.65167E+06 0.241497
1.65167E+06 0.241497
1.65789E+06 0.240785
1.65789E+06 0.240785
1.66017E+06 0.240524
1.66017E+06 0.240524
1.66803E+06 0.239624
1.66803E+06 0.239624
1.70000E+06 0.235963
1.72344E+06 0.234209
1.72344E+06 0.234208
1.73242E+06 0.233536
1.73242E+06 0.233536
1.74748E+06 0.232409
1.74748E+06 0.232409
1.77791E+06 0.230131
1.77791E+06 0.230131
1.79022E+06 0.229209
1.80000E+06 0.228477
1.80792E+06 0.227670
1.80793E+06 0.227670
1.80893E+06 0.227567
1.80893E+06 0.227567
1.90000E+06 0.218289
2.00000E+06 0.205144
2.10000E+06 0.197941
2.20000E+06 0.184605
2.30000E+06 0.170782
2.40000E+06 0.157069
2.50000E+06 0.144009
2.60000E+06 0.131889
2.70000E+06 0.120784
2.80000E+06 0.110648
2.90000E+06 0.101387
3.00000E+06 0.0929047
3.10000E+06 0.0851041
3.20000E+06 0.0779049
3.30000E+06 0.0712398
3.40000E+06 0.0650517
3.50000E+06 0.0592940
3.60000E+06 0.0539262
3.80000E+06 0.0442393
4.00000E+06 0.0358097
4.50000E+06 0.0198711
5.00000E+06 0.0107734
5.50000E+06 0.00599558
6.00000E+06 0.00338507
6.28937E+06 0.00258247
6.28937E+06 0.00258246
6.50000E+06 0.00199827
7.00000E+06 0.00129004
7.50000E+06 0.000924820
8.00000E+06 0.000738306
8.50000E+06 0.000646352
8.55563E+06 0.000641137
9.00000E+06 0.000599486
9.50000E+06 0.000568883
1.00000E+07 0.000542872
1.05000E+07 0.000522155
1.10000E+07 0.000512749
1.15000E+07 0.000520465
1.20000E+07 0.000546258
1.25000E+07 0.000583709
1.30000E+07 0.000624594
1.35000E+07 0.000665920
1.40000E+07 0.000705639
1.45000E+07 0.000734474
1.50000E+07 0.000739740
1.55000E+07 0.000716809
1.56777E+07 0.000701127
1.56777E+07 0.000701126
1.60000E+07 0.000672681
1.65000E+07 0.000618973
1.70000E+07 0.000564566
1.75000E+07 0.000513852
1.80000E+07 0.000468196
1.85000E+07 0.000427560
1.90000E+07 0.000391465
1.95000E+07 0.000359386
2.00000E+07 0.000330876
