Ir-193(n,tot) ENDFB-8.0
Energy(eV) XS(b)
1.00000E-05 67485.3
1.03125E-05 66455.1
1.06250E-05 65470.7
1.09375E-05 64528.7
1.12500E-05 63626.3
1.15625E-05 62760.7
1.18750E-05 61929.6
1.21875E-05 61130.6
1.25000E-05 60361.7
1.28125E-05 59621.2
1.31250E-05 58907.3
1.34375E-05 58218.4
1.37500E-05 57553.1
1.43750E-05 56288.3
1.50000E-05 55103.4
1.56091E-05 54017.9
1.62181E-05 52994.1
1.62500E-05 52942.1
1.63281E-05 52815.3
1.64063E-05 52689.4
1.65625E-05 52440.3
1.68750E-05 51952.6
1.75000E-05 51016.7
1.81250E-05 50129.6
1.87500E-05 49287.2
1.93750E-05 48485.9
2.00000E-05 47722.5
2.09375E-05 46642.2
2.18750E-05 45632.0
2.28125E-05 44684.8
2.37500E-05 43794.3
2.46875E-05 42955.0
2.56250E-05 42162.2
2.65625E-05 41411.7
2.75000E-05 40700.0
2.84375E-05 40023.7
2.93750E-05 39380.1
3.03125E-05 38766.6
3.12500E-05 38180.9
3.21875E-05 37621.0
3.31250E-05 37085.0
3.40625E-05 36571.4
3.50000E-05 36078.5
3.59375E-05 35605.0
3.68750E-05 35149.7
3.78125E-05 34711.4
3.87500E-05 34289.2
3.96875E-05 33882.0
4.06250E-05 33489.0
4.25000E-05 32742.3
4.43750E-05 32043.5
4.62500E-05 31387.6
4.81250E-05 30770.5
5.00000E-05 30188.4
5.15625E-05 29727.8
5.31250E-05 29287.7
5.46875E-05 28866.6
5.62500E-05 28463.1
5.78125E-05 28076.1
5.93750E-05 27704.5
6.09375E-05 27347.3
6.25000E-05 27003.6
6.40625E-05 26672.5
6.56250E-05 26353.4
6.71875E-05 26045.4
6.87500E-05 25748.0
7.18750E-05 25182.6
7.50000E-05 24652.8
7.81250E-05 24155.3
8.12500E-05 23686.7
8.14763E-05 23653.8
8.22293E-05 23545.4
8.29822E-05 23438.4
8.44882E-05 23228.8
8.75000E-05 22826.0
9.06250E-05 22429.5
9.37500E-05 22052.9
9.68750E-05 21694.8
0.000100000 21353.5
0.000103125 21028.0
0.000106250 20716.8
0.000109375 20419.2
0.000112500 20134.0
0.000115625 19860.4
0.000118750 19597.8
0.000121875 19345.3
0.000125000 19102.4
0.000128125 18868.4
0.000131250 18642.8
0.000134375 18425.1
0.000137500 18214.9
0.000143750 17815.3
0.000150000 17440.9
0.000156250 17089.2
0.000162500 16758.0
0.000168750 16445.5
0.000175000 16149.8
0.000181250 15869.5
0.000187500 15603.5
0.000193750 15350.4
0.000200000 15109.2
0.000209375 14768.0
0.000218750 14449.0
0.000228125 14149.8
0.000237500 13868.6
0.000246875 13603.6
0.000256250 13353.2
0.000265625 13116.3
0.000275000 12891.6
0.000284375 12678.1
0.000293750 12474.9
0.000303125 12281.2
0.000312500 12096.3
0.000321875 11919.6
0.000331250 11750.4
0.000340625 11588.3
0.000350000 11432.8
0.000359375 11283.4
0.000368750 11139.7
0.000378125 11001.4
0.000387500 10868.2
0.000396875 10739.7
0.000406250 10615.7
0.000425000 10380.2
0.000443750 10159.8
0.000462500 9952.89
0.000481250 9758.28
0.000500000 9574.73
0.000515585 9429.87
0.000531171 9291.44
0.000546756 9158.98
0.000562341 9032.09
0.000564453 9015.30
0.000572022 8955.90
0.000579590 8897.68
0.000594727 8784.58
0.000609863 8675.74
0.000625000 8570.88
0.000640625 8466.58
0.000656250 8366.03
0.000671875 8269.02
0.000687500 8175.34
0.000718750 7997.27
0.000750000 7830.47
0.000781250 7673.82
0.000812500 7526.33
0.000843750 7387.14
0.000875000 7255.50
0.000906250 7130.75
0.000937500 7012.32
0.000968750 6899.69
0.00100000 6792.40
0.00103125 6690.05
0.00106250 6592.27
0.00109375 6498.72
0.00112500 6409.13
0.00115625 6323.20
0.00118750 6240.71
0.00121875 6161.43
0.00125000 6085.15
0.00128125 6011.70
0.00131250 5940.90
0.00134375 5872.60
0.00137500 5806.66
0.00143750 5681.32
0.00150000 5563.95
0.00156250 5453.73
0.00162500 5349.98
0.00168750 5252.09
0.00175000 5159.53
0.00181250 5071.84
0.00187500 4988.60
0.00193750 4909.46
0.00200000 4834.09
0.00209375 4727.48
0.00218750 4627.86
0.00228125 4534.51
0.00237500 4446.79
0.00246875 4364.18
0.00256250 4286.19
0.00265625 4212.41
0.00275000 4142.48
0.00282017 4092.48
0.00289033 4044.32
0.00296049 3997.92
0.00303066 3953.15
0.00317099 3868.19
0.00331131 3788.76
0.00332422 3781.71
0.00336817 3758.02
0.00341211 3734.80
0.00350000 3689.70
0.00359375 3643.46
0.00368750 3599.02
0.00378125 3556.28
0.00387500 3515.12
0.00396875 3475.46
0.00406250 3437.20
0.00425000 3364.60
0.00443750 3296.74
0.00462500 3233.14
0.00481250 3173.37
0.00500000 3117.08
0.00515625 3072.60
0.00531250 3030.14
0.00546875 2989.56
0.00562500 2950.74
0.00578125 2913.54
0.00593750 2877.87
0.00609375 2843.62
0.00625000 2810.70
0.00640625 2779.03
0.00656250 2748.54
0.00687500 2690.82
0.00718750 2637.03
0.00750000 2586.78
0.00781250 2539.69
0.00812500 2495.46
0.00843750 2453.82
0.00875000 2414.53
0.00906250 2377.40
0.00937500 2342.24
0.00968750 2308.89
0.0100000 2277.20
0.0103125 2247.05
0.0106250 2218.33
0.0109375 2190.93
0.0112500 2164.76
0.0115625 2139.73
0.0118750 2115.77
0.0121875 2092.81
0.0125000 2070.78
0.0128125 2049.63
0.0131250 2029.31
0.0137500 1990.95
0.0143750 1955.36
0.0150000 1922.24
0.0156250 1891.34
0.0162500 1862.45
0.0168750 1835.38
0.0175000 1809.96
0.0181250 1786.06
0.0187500 1763.54
0.0193750 1742.30
0.0200000 1722.22
0.0206625 1702.13
0.0213250 1683.16
0.0219875 1665.22
0.0226500 1648.25
0.0233125 1632.18
0.0239750 1616.94
0.0246375 1602.48
0.0253000 1588.74
0.0262649 1569.95
0.0272297 1552.47
0.0281945 1536.21
0.0291594 1521.06
0.0301242 1506.93
0.0310891 1493.74
0.0320539 1481.43
0.0330188 1469.93
0.0343479 1455.33
0.0356770 1442.05
0.0370061 1429.97
0.0383352 1419.00
0.0396643 1409.05
0.0409934 1400.06
0.0423225 1391.95
0.0436516 1384.67
0.0438250 1383.78
0.0442109 1381.84
0.0445969 1379.97
0.0453688 1376.41
0.0469125 1370.01
0.0484563 1364.51
0.0500000 1359.87
0.0515625 1355.98
0.0531250 1352.87
0.0546875 1350.49
0.0562500 1348.82
0.0578125 1347.83
0.0593750 1347.48
0.0609375 1347.76
0.0625000 1348.64
0.0640625 1350.11
0.0656250 1352.15
0.0671875 1354.74
0.0687500 1357.87
0.0718750 1365.73
0.0750000 1375.65
0.0781250 1387.60
0.0812500 1401.56
0.0843750 1417.55
0.0875000 1435.59
0.0906250 1455.68
0.0937500 1477.90
0.0968750 1502.30
0.100000 1528.98
0.102734 1554.26
0.105469 1581.40
0.108203 1610.51
0.110938 1641.68
0.113672 1675.03
0.116406 1710.66
0.119141 1748.70
0.121875 1789.30
0.123438 1813.70
0.125000 1839.03
0.126875 1870.68
0.128750 1903.76
0.130625 1938.34
0.132500 1974.48
0.134375 2012.27
0.136250 2051.76
0.138125 2093.06
0.140000 2136.24
0.141250 2166.12
0.142500 2196.91
0.143750 2228.63
0.145000 2261.34
0.146250 2295.04
0.147500 2329.79
0.148750 2365.62
0.150000 2402.56
0.152149 2468.77
0.154297 2538.60
0.156445 2612.27
0.158594 2690.00
0.159668 2730.48
0.160742 2772.07
0.161817 2814.80
0.162891 2858.71
0.163965 2903.85
0.165039 2950.23
0.166113 2997.91
0.167188 3046.92
0.169141 3139.57
0.170117 3187.68
0.171094 3237.00
0.172070 3287.59
0.173047 3339.46
0.174024 3392.67
0.175000 3447.23
0.175977 3503.18
0.176953 3560.56
0.177930 3619.41
0.178906 3679.74
0.179883 3741.61
0.180859 3805.04
0.181836 3870.07
0.182813 3936.73
0.183789 4005.06
0.184766 4075.08
0.185742 4146.84
0.186719 4220.34
0.187695 4295.64
0.188672 4372.74
0.189649 4451.69
0.190625 4532.49
0.191797 4631.93
0.192969 4734.11
0.194141 4839.03
0.195313 4946.70
0.196484 5057.15
0.197656 5170.34
0.198828 5286.25
0.200000 5404.84
0.200941 5501.94
0.201881 5600.70
0.202822 5701.06
0.203762 5802.99
0.205644 6011.26
0.207525 6224.86
0.209406 6443.03
0.211287 6664.77
0.213168 6888.87
0.215049 7113.92
0.217137 7362.77
0.219224 7608.26
0.221311 7847.58
0.223398 8077.61
0.224441 8188.15
0.225485 8295.11
0.226528 8398.09
0.227572 8496.63
0.228616 8590.34
0.229659 8678.76
0.230703 8761.50
0.231746 8838.16
0.232937 8917.75
0.234129 8988.37
0.235320 9049.55
0.236512 9100.82
0.237703 9141.84
0.238894 9172.26
0.240086 9191.85
0.241277 9200.43
0.242639 9196.63
0.244000 9178.30
0.245362 9145.55
0.246723 9098.63
0.248085 9037.88
0.249446 8963.82
0.250194 8917.67
0.250942 8867.79
0.251690 8814.30
0.252438 8757.33
0.253934 8633.46
0.255429 8497.33
0.256925 8350.16
0.258421 8193.21
0.259917 8027.76
0.261412 7855.14
0.262537 7721.42
0.263661 7584.90
0.264785 7446.09
0.265909 7305.51
0.268158 7020.86
0.270407 6734.51
0.272655 6449.54
0.274904 6168.66
0.277152 5894.03
0.279401 5627.46
0.281252 5415.03
0.283103 5209.55
0.284954 5011.45
0.286805 4821.02
0.287730 4728.73
0.288656 4638.42
0.289581 4550.08
0.290507 4463.72
0.291432 4379.33
0.292358 4296.91
0.293283 4216.45
0.294209 4137.93
0.295561 4026.63
0.296913 3919.37
0.298266 3816.06
0.299618 3716.61
0.300970 3620.93
0.302323 3528.93
0.303675 3440.50
0.305027 3355.52
0.306114 3289.64
0.307202 3225.88
0.308289 3164.17
0.309376 3104.46
0.310463 3046.69
0.311550 2990.82
0.312638 2936.77
0.313725 2884.52
0.314812 2833.99
0.315899 2785.14
0.316986 2737.91
0.318073 2692.27
0.319161 2648.16
0.320248 2605.54
0.321335 2564.35
0.322422 2524.57
0.323563 2484.27
0.324704 2445.41
0.325845 2407.94
0.326986 2371.84
0.328127 2337.04
0.329268 2303.51
0.330409 2271.21
0.331550 2240.10
0.332691 2210.14
0.333832 2181.29
0.334973 2153.53
0.336114 2126.82
0.337255 2101.13
0.338396 2076.42
0.339537 2052.67
0.340678 2029.85
0.342833 1989.18
0.344988 1951.56
0.347143 1916.82
0.349298 1884.83
0.351453 1855.44
0.353608 1828.54
0.355763 1804.00
0.357918 1781.73
0.360119 1761.21
0.362321 1742.87
0.364522 1726.61
0.366724 1712.37
0.368925 1700.07
0.371127 1689.65
0.373328 1681.05
0.375529 1674.24
0.378019 1668.63
0.380508 1665.19
0.382889 1663.89
0.385270 1664.51
0.387651 1667.02
0.390032 1671.42
0.392413 1677.69
0.394794 1685.83
0.397175 1695.84
0.399556 1707.74
0.400999 1715.87
0.402442 1724.71
0.404462 1738.29
0.406482 1753.27
0.408503 1769.69
0.410523 1787.57
0.412543 1806.95
0.414564 1827.85
0.416584 1850.31
0.418604 1874.38
0.420896 1903.68
0.423187 1935.17
0.424333 1951.77
0.425478 1968.95
0.426624 1986.72
0.427770 2005.08
0.428915 2024.07
0.430061 2043.69
0.431207 2063.94
0.432352 2084.85
0.433498 2106.43
0.434644 2128.70
0.435789 2151.67
0.436935 2175.35
0.438076 2199.67
0.439217 2224.73
0.440358 2250.56
0.441499 2277.17
0.442640 2304.58
0.443781 2332.82
0.444922 2361.89
0.446063 2391.83
0.447204 2422.66
0.448345 2454.40
0.449486 2487.07
0.450627 2520.69
0.451768 2555.31
0.452909 2590.93
0.454050 2627.60
0.455191 2665.32
0.456643 2714.93
0.458095 2766.37
0.459547 2819.71
0.460999 2875.01
0.462452 2932.35
0.463904 2991.80
0.465356 3053.43
0.466808 3117.31
0.468021 3172.44
0.469233 3229.24
0.470446 3287.76
0.471658 3348.05
0.472871 3410.16
0.474084 3474.14
0.475296 3540.03
0.476509 3607.89
0.477912 3688.96
0.479316 3772.82
0.480720 3859.53
0.482123 3949.18
0.483527 4041.85
0.484930 4137.60
0.486334 4236.51
0.487737 4338.64
0.488504 4395.80
0.489270 4453.95
0.490037 4513.09
0.490803 4573.24
0.491569 4634.41
0.492336 4696.60
0.493102 4759.81
0.493869 4824.05
0.494635 4889.34
0.495402 4955.66
0.496168 5023.01
0.496934 5091.41
0.500000 5375.41
0.502025 5572.03
0.504051 5775.60
0.506076 5985.85
0.508101 6202.37
0.510127 6424.66
0.512152 6652.05
0.514177 6883.74
0.516203 7118.77
0.520253 7594.20
0.524304 8067.33
0.528354 8524.64
0.532405 8950.59
0.535104 9208.78
0.537804 9440.60
0.540503 9641.21
0.543203 9806.19
0.545902 9931.71
0.548601 10014.7
0.551301 10053.0
0.554000 10045.5
0.556680 9992.77
0.559360 9895.92
0.562040 9757.03
0.564720 9579.06
0.566942 9404.49
0.569165 9208.04
0.571387 8992.34
0.573609 8760.15
0.575831 8514.29
0.578053 8257.55
0.582498 7722.20
0.586942 7174.00
0.591386 6629.75
0.595831 6102.44
0.600275 5601.43
0.604534 5151.48
0.608793 4733.95
0.613052 4349.78
0.617311 3998.55
0.619441 3834.88
0.621570 3678.90
0.623700 3530.33
0.625829 3388.92
0.627959 3254.36
0.630089 3126.38
0.632218 3004.67
0.634348 2888.95
0.638608 2674.20
0.642869 2480.00
0.647130 2304.27
0.651391 2145.09
0.655652 2000.70
0.659912 1869.55
0.664173 1750.23
0.668434 1641.50
0.672380 1549.27
0.676325 1464.38
0.680271 1386.12
0.684217 1313.86
0.688163 1247.03
0.692109 1185.13
0.696054 1127.70
0.700000 1074.36
0.703916 1025.08
0.707832 979.159
0.711748 936.297
0.715664 896.243
0.719580 858.766
0.723496 823.659
0.727413 790.734
0.731329 759.821
0.735245 730.765
0.739161 703.426
0.743077 677.677
0.746993 653.401
0.750909 630.493
0.754825 608.856
0.762657 569.050
0.770634 532.736
0.778610 500.137
0.786587 470.781
0.794564 444.266
0.802540 420.248
0.810517 398.438
0.818493 378.586
0.826470 360.482
0.832668 347.503
0.838865 335.392
0.845063 324.081
0.851260 313.508
0.857458 303.617
0.863655 294.355
0.876050 277.526
0.888445 262.684
0.900840 249.573
0.913235 237.987
0.925630 227.747
0.934926 220.858
0.944223 214.585
0.953519 208.879
0.962815 203.697
0.972111 199.004
0.981408 194.766
0.990704 190.956
1.00000 187.547
1.01206 183.684
1.02412 180.408
1.03618 177.689
1.04824 175.500
1.06030 173.823
1.07236 172.644
1.08442 171.956
1.09648 171.756
1.11552 172.426
1.13455 174.323
1.15359 177.518
1.16311 179.636
1.17262 182.122
1.18214 184.995
1.19166 188.276
1.20118 191.991
1.21070 196.171
1.22021 200.857
1.22973 206.099
1.23925 211.951
1.24877 218.473
1.26224 228.984
1.27572 241.193
1.28245 248.020
1.28919 255.381
1.29593 263.325
1.30267 271.903
1.30940 281.177
1.31614 291.210
1.32288 302.082
1.32962 313.877
1.33635 326.697
1.34309 340.651
1.34983 355.868
1.35657 372.495
1.36278 389.238
1.36900 407.477
1.37522 427.388
1.38144 449.172
1.38714 470.990
1.39284 494.790
1.39854 520.813
1.40425 549.333
1.40995 580.670
1.41565 615.191
1.42135 653.324
1.42705 695.561
1.43248 740.191
1.43792 789.673
1.44063 816.453
1.44335 844.707
1.44607 874.560
1.44878 906.105
1.45150 939.487
1.45421 974.817
1.45693 1012.26
1.45965 1051.96
1.46236 1094.09
1.46508 1138.82
1.46780 1186.37
1.47051 1236.91
1.47263 1278.50
1.47474 1322.15
1.47686 1367.98
1.47897 1416.13
1.48108 1466.71
1.48320 1519.87
1.48531 1575.74
1.48743 1634.46
1.48954 1696.17
1.49165 1761.03
1.49377 1829.17
1.49588 1900.74
1.49800 1975.89
1.50011 2054.74
1.50222 2137.43
1.50434 2224.08
1.50741 2357.38
1.51049 2499.50
1.51338 2641.17
1.51627 2790.69
1.51915 2947.96
1.52204 3112.66
1.52493 3284.39
1.52782 3462.31
1.53071 3645.57
1.53359 3832.98
1.53757 4095.36
1.54155 4358.44
1.54553 4616.91
1.54951 4864.80
1.55349 5095.67
1.55747 5302.94
1.56145 5480.23
1.56543 5621.69
1.56832 5699.32
1.57121 5753.98
1.57411 5784.63
1.57700 5790.71
1.57917 5779.05
1.58134 5753.64
1.58351 5714.73
1.58568 5662.80
1.58821 5586.45
1.59075 5494.20
1.59328 5387.33
1.59581 5267.28
1.59834 5135.62
1.60087 4993.98
1.60341 4844.04
1.60594 4687.49
1.60883 4502.57
1.61173 4313.59
1.61575 4048.09
1.61977 3784.10
1.62379 3526.00
1.62781 3277.31
1.63184 3040.60
1.63586 2817.64
1.63988 2609.48
1.64390 2416.53
1.64795 2237.69
1.65200 2073.77
1.65604 1924.07
1.66009 1787.76
1.66414 1663.81
1.66818 1551.28
1.67223 1449.12
1.67627 1356.42
1.68032 1272.24
1.68437 1195.76
1.68842 1126.21
1.69246 1062.92
1.69651 1005.23
1.70055 952.587
1.70460 904.480
1.70865 860.480
1.71159 830.818
1.71708 780.274
1.72256 735.256
1.72805 695.085
1.73353 659.186
1.73902 627.067
1.74451 598.306
1.74999 572.541
1.75548 549.461
1.76046 530.599
1.76544 513.561
1.77043 498.192
1.77541 484.358
1.78039 471.944
1.78537 460.855
1.79035 451.002
1.79534 442.312
1.80032 434.720
1.80530 428.178
1.81028 422.639
1.81527 418.067
1.82025 414.434
1.82523 411.720
1.83021 409.910
1.83519 408.996
1.84329 409.422
1.85138 412.243
1.85947 417.540
1.86757 425.445
1.87566 436.150
1.88375 449.907
1.89185 467.051
1.89589 477.022
1.89994 488.003
1.90656 508.350
1.91318 531.957
1.91981 559.252
1.92643 590.737
1.92974 608.240
1.93305 627.027
1.93636 647.191
1.93967 668.828
1.94298 692.060
1.94629 716.999
1.94960 743.774
1.95291 772.512
1.95733 814.168
1.96174 859.955
1.96579 905.912
1.96984 956.006
1.97388 1010.57
1.97793 1069.91
1.98198 1134.40
1.98602 1204.28
1.98805 1241.35
1.99007 1279.86
1.99209 1319.82
1.99412 1361.28
1.99706 1424.24
2.00000 1490.34
2.00272 1554.31
2.00545 1620.88
2.00817 1689.94
2.01090 1761.34
2.01362 1834.87
2.01634 1910.29
2.01907 1987.29
2.02179 2065.48
2.02455 2145.48
2.02731 2225.78
2.03006 2305.89
2.03282 2385.15
2.03834 2538.61
2.04385 2680.59
2.04724 2759.78
2.05064 2831.11
2.05403 2893.33
2.05743 2945.28
2.06082 2986.01
2.06421 3014.70
2.06761 3030.77
2.07100 3033.92
2.07385 3026.50
2.07670 3010.02
2.07955 2984.68
2.08240 2950.84
2.08525 2908.93
2.08810 2859.55
2.09095 2803.28
2.09380 2740.86
2.09646 2677.64
2.09912 2610.35
2.10444 2466.07
2.10977 2313.12
2.11509 2156.26
2.12041 1999.69
2.12573 1846.85
2.13106 1700.41
2.13638 1562.29
2.14146 1439.30
2.14653 1325.48
2.15161 1220.91
2.15669 1125.40
2.16177 1038.55
2.16684 959.840
2.17192 888.651
2.17700 824.336
2.18208 766.240
2.18715 713.768
2.19223 666.321
2.19731 623.385
2.20239 584.460
2.20746 549.126
2.21254 516.987
2.21762 487.700
2.22085 470.405
2.22408 454.069
2.23054 424.018
2.23700 397.080
2.24346 372.860
2.24854 355.504
2.25362 339.473
2.25870 324.632
2.26377 310.875
2.26885 298.096
2.27393 286.212
2.27901 275.141
2.28408 264.812
2.28916 255.161
2.29424 246.135
2.29931 237.680
2.30439 229.752
2.30947 222.307
2.31455 215.311
2.32470 202.530
2.33137 194.920
2.33804 187.868
2.34471 181.322
2.35139 175.238
2.35806 169.576
2.36473 164.300
2.37140 159.378
2.37807 154.781
2.39141 146.464
2.40475 139.176
2.41810 132.776
2.43144 127.149
2.44092 123.566
2.45041 120.298
2.45989 117.318
2.46937 114.603
2.47886 112.135
2.48834 109.896
2.50731 106.046
2.52628 102.955
2.54525 100.550
2.56421 98.7805
2.58318 97.6101
2.59795 97.1005
2.61826 96.9682
2.63857 97.5027
2.65888 98.7317
2.66903 99.6213
2.67919 100.705
2.68934 101.993
2.69950 103.497
2.70965 105.232
2.71981 107.213
2.72996 109.461
2.74012 111.996
2.75027 114.845
2.76042 118.037
2.77199 122.132
2.78355 126.778
2.79512 132.048
2.80668 138.028
2.81824 144.825
2.82981 152.566
2.84137 161.405
2.84715 166.292
2.85293 171.526
2.86110 179.568
2.86926 188.459
2.87742 198.314
2.88558 209.265
2.89375 221.472
2.90191 235.119
2.91007 250.435
2.91415 258.801
2.91823 267.689
2.92390 280.965
2.92956 295.456
2.93522 311.317
2.94088 328.713
2.94654 347.846
2.95220 368.939
2.95786 392.258
2.96352 418.112
2.96906 446.209
2.97459 477.458
2.97967 509.266
2.98475 544.493
2.98983 583.593
2.99237 604.756
2.99490 627.073
2.99744 650.634
2.99998 675.506
3.00252 701.769
3.00506 729.495
3.00760 758.791
3.01014 789.723
3.01267 822.405
3.01521 856.903
3.01867 907.075
3.02214 961.051
3.02560 1019.06
3.02906 1081.29
3.03252 1147.95
3.03598 1219.17
3.03945 1295.06
3.04291 1375.63
3.04545 1437.72
3.04798 1502.26
3.05052 1569.25
3.05306 1638.52
3.05560 1710.00
3.05814 1783.47
3.06068 1858.79
3.06322 1935.65
3.06546 2004.79
3.06771 2074.72
3.07220 2215.93
3.07670 2357.09
3.08119 2495.63
3.08516 2613.65
3.08913 2725.35
3.09310 2828.67
3.09707 2921.54
3.10104 3002.05
3.10501 3068.39
3.10898 3119.09
3.11295 3152.99
3.11598 3167.04
3.11900 3170.68
3.12278 3160.53
3.12656 3134.29
3.13034 3092.55
3.13413 3036.20
3.13857 2952.95
3.14301 2853.50
3.14745 2740.50
3.15189 2616.77
3.15634 2485.23
3.16078 2348.68
3.16522 2209.80
3.16966 2070.98
3.17588 1880.74
3.18209 1699.27
3.18520 1612.86
3.18831 1529.75
3.19142 1450.12
3.19452 1374.16
3.19904 1270.26
3.20356 1174.26
3.20808 1085.99
3.21260 1005.15
3.21713 931.350
3.22165 864.155
3.22617 803.058
3.23069 747.557
3.23379 712.383
3.23690 679.464
3.24001 648.649
3.24312 619.805
3.24622 592.775
3.24933 567.442
3.25244 543.684
3.25555 521.395
3.25866 500.457
3.26176 480.778
3.26487 462.269
3.26798 444.850
3.27109 428.434
3.27419 412.954
3.27730 398.345
3.28041 384.551
3.28358 371.245
3.28675 358.673
3.29309 335.522
3.29944 314.735
3.30578 296.015
3.31212 279.098
3.31846 263.770
3.32481 249.841
3.33115 237.148
3.33592 228.323
3.34070 220.069
3.34547 212.336
3.35025 205.085
3.35637 196.429
3.36249 188.430
3.36861 181.024
3.37473 174.154
3.38085 167.771
3.38697 161.833
3.39309 156.301
3.39921 151.139
3.40533 146.318
3.41145 141.810
3.41757 137.590
3.42369 133.636
3.43593 126.447
3.44817 120.103
3.45548 116.667
3.46280 113.471
3.47742 107.722
3.49205 102.728
3.50668 98.3854
3.52131 94.6077
3.53593 91.3245
3.55056 88.4760
3.56519 86.0140
3.58101 83.7405
3.59683 81.8330
3.61265 80.2590
3.62847 78.9920
3.64429 78.0106
3.66012 77.2980
3.67594 76.8413
3.69176 76.6314
3.70419 76.6357
3.71662 76.7873
3.72905 77.0860
3.74148 77.5325
3.75391 78.1290
3.76634 78.8786
3.77877 79.7857
3.79120 80.8558
3.80364 82.0961
3.81607 83.5146
3.82850 85.1214
3.84093 86.9275
3.85336 88.9466
3.86579 91.1939
3.87822 93.6876
3.89065 96.4486
3.90704 100.540
3.92342 105.206
3.93981 110.526
3.95620 116.595
3.96439 119.946
3.97258 123.529
3.98078 127.362
3.98897 131.465
3.99717 135.862
4.00536 140.576
4.01355 145.637
4.02174 151.075
4.03474 160.564
4.04124 165.750
4.04774 171.260
4.05423 177.122
4.06073 183.365
4.06723 190.020
4.07373 197.121
4.08022 204.710
4.08672 212.829
4.09322 221.527
4.09972 230.855
4.10622 240.879
4.11271 251.662
4.11921 263.286
4.12571 275.833
4.13249 290.023
4.13927 305.453
4.14605 322.276
4.15283 340.655
4.15905 359.040
4.16526 379.067
4.17148 400.940
4.17769 424.878
4.18391 451.150
4.19012 480.049
4.19323 495.594
4.19634 511.931
4.19945 529.113
4.20255 547.189
4.20524 563.575
4.20792 580.718
4.21061 598.664
4.21329 617.458
4.21597 637.152
4.21866 657.797
4.22134 679.451
4.22402 702.164
4.22671 726.017
4.22939 751.068
4.23208 777.387
4.23476 805.048
4.23744 834.130
4.24013 864.713
4.24281 896.884
4.24550 930.716
4.24860 972.121
4.25171 1016.04
4.25482 1062.63
4.25793 1112.02
4.26103 1164.40
4.26414 1219.91
4.26725 1278.71
4.27036 1340.91
4.27347 1406.70
4.27657 1476.17
4.27968 1549.46
4.28279 1626.60
4.28590 1707.73
4.28900 1792.86
4.29211 1881.97
4.29522 1975.01
4.29833 2071.95
4.30144 2172.62
4.30454 2276.83
4.30765 2384.29
4.31076 2494.77
4.31387 2607.80
4.31697 2723.00
4.32008 2839.80
4.32362 2974.09
4.32716 3108.76
4.33424 3374.82
4.34132 3628.42
4.34840 3859.13
4.35223 3970.51
4.35605 4070.54
4.35988 4157.74
4.36370 4230.76
4.36753 4288.49
4.37135 4329.99
4.37518 4354.62
4.37900 4361.98
4.38240 4353.93
4.38580 4332.26
4.38920 4297.27
4.39260 4249.43
4.39728 4163.80
4.40195 4057.09
4.40663 3931.73
4.41130 3790.50
4.41598 3636.33
4.42065 3472.25
4.42533 3301.27
4.43000 3126.24
4.43519 2930.44
4.44038 2736.19
4.44557 2546.28
4.45076 2363.01
4.45595 2188.05
4.46114 2022.70
4.46633 1867.75
4.47152 1723.65
4.47676 1589.14
4.48200 1465.58
4.48724 1352.53
4.49248 1249.47
4.49772 1155.73
4.50297 1070.62
4.50821 993.422
4.51345 923.435
4.51869 859.963
4.52393 802.387
4.52917 750.101
4.53441 702.558
4.53965 659.263
4.54489 619.772
4.55014 583.685
4.55538 550.648
4.55967 525.659
4.56395 502.350
4.56824 480.575
4.57253 460.206
4.57682 441.125
4.58111 423.236
4.58539 406.439
4.58968 390.649
4.59397 375.785
4.59826 361.783
4.60255 348.576
4.60684 336.104
4.61112 324.312
4.61541 313.157
4.62399 292.576
4.62978 279.846
4.63558 267.969
4.64137 256.869
4.64717 246.481
4.65296 236.744
4.65876 227.606
4.66455 219.018
4.67034 210.938
4.67614 203.324
4.68193 196.144
4.68773 189.362
4.69352 182.952
4.70511 171.138
4.71670 160.516
4.72887 150.470
4.74105 141.417
4.75322 133.229
4.76539 125.799
4.77757 119.035
4.78974 112.861
4.80191 107.209
4.81409 102.021
4.82737 96.8333
4.84064 92.0832
4.85060 88.7776
4.86056 85.6722
4.87052 82.7506
4.88048 79.9986
4.89044 77.4025
4.90040 74.9509
4.91036 72.6333
4.92032 70.4403
4.94024 66.3926
4.96016 62.7469
4.98008 59.4511
5.00000 56.4613
5.01494 54.3973
5.02987 52.4704
5.04481 50.6680
5.05974 48.9797
5.07468 47.3958
5.08961 45.9079
5.10455 44.5081
5.11948 43.1896
5.13442 41.9461
5.14936 40.7720
5.17923 38.6114
5.20910 36.6720
5.23897 34.9239
5.25812 33.8922
5.27727 32.9232
5.29641 32.0121
5.31556 31.1543
5.33471 30.3458
5.35386 29.5826
5.39216 28.1774
5.43046 26.9139
5.46875 25.7735
5.50705 24.7408
5.54535 23.8035
5.57101 23.2234
5.59666 22.6781
5.62232 22.1650
5.64798 21.6815
5.69929 20.7920
5.75061 19.9934
5.80192 19.2755
5.85324 18.6280
5.90455 18.0419
5.95587 17.5101
6.01845 16.9261
6.08104 16.4046
6.14362 15.9381
6.20621 15.5205
6.26879 15.1468
6.33137 14.8133
6.39396 14.5175
6.45654 14.2565
6.49715 14.1045
6.53775 13.9661
6.57836 13.8413
6.61897 13.7300
6.65957 13.6321
6.70018 13.5484
6.74078 13.4804
6.78139 13.4287
6.82755 13.3907
6.87372 13.3773
6.91988 13.3916
6.96604 13.4379
7.01221 13.5214
7.03529 13.5793
7.05837 13.6496
7.08145 13.7338
7.10454 13.8336
7.12762 13.9509
7.15070 14.0880
7.17514 14.2576
7.19958 14.4559
7.22402 14.6877
7.24846 14.9586
7.27290 15.2754
7.29734 15.6467
7.30956 15.8560
7.32178 16.0832
7.33400 16.3300
7.34622 16.5986
7.36066 16.9473
7.37510 17.3342
7.38954 17.7647
7.40398 18.2449
7.41842 18.7822
7.43286 19.3854
7.44730 20.0650
7.46174 20.8339
7.47486 21.6231
7.48798 22.5132
7.49454 23.0014
7.50110 23.5217
7.50766 24.0769
7.51421 24.6700
7.52077 25.3048
7.52733 25.9850
7.53389 26.7151
7.54045 27.4999
7.54701 28.3453
7.55357 29.2573
7.56013 30.2434
7.56669 31.3116
7.57593 32.9741
7.58055 33.8829
7.58517 34.8494
7.58979 35.8786
7.59441 36.9759
7.59903 38.1475
7.60364 39.4001
7.60826 40.7417
7.61288 42.1801
7.61750 43.7249
7.62212 45.3866
7.62674 47.1768
7.63136 49.1084
7.63598 51.1959
7.64060 53.4552
7.64421 55.3557
7.64783 57.3817
7.65145 59.5430
7.65507 61.8504
7.65868 64.3154
7.66230 66.9504
7.66592 69.7683
7.66953 72.7821
7.67315 76.0081
7.67677 79.4607
7.68038 83.1557
7.68400 87.1084
7.68762 91.3377
7.69123 95.8593
7.69485 100.690
7.69847 105.846
7.70265 112.245
7.70684 119.127
7.71103 126.512
7.71522 134.418
7.71941 142.860
7.72359 151.846
7.72778 161.379
7.73197 171.452
7.73578 181.074
7.73958 191.115
7.74720 212.362
7.75481 234.925
7.76243 258.395
7.77085 284.771
7.77927 310.737
7.78769 335.287
7.79190 346.698
7.79611 357.353
7.80034 367.182
7.80458 375.986
7.80882 383.650
7.81305 390.069
7.81729 395.157
7.82153 398.842
7.82576 401.073
7.83000 401.820
7.83462 400.930
7.83924 398.279
7.84387 393.915
7.84849 387.914
7.85311 380.378
7.85773 371.432
7.86235 361.220
7.86698 349.905
7.87214 336.157
7.87731 321.485
7.88764 290.345
7.89797 258.349
7.90829 227.092
7.91399 210.629
7.91969 194.915
7.92538 180.060
7.93108 166.136
7.93677 153.183
7.94247 141.220
7.94816 130.233
7.95101 125.097
7.95386 120.194
7.95670 115.517
7.95955 111.060
7.96240 106.816
7.96525 102.779
7.96810 98.9388
7.97094 95.2907
7.97379 91.8240
7.97664 88.5331
7.97949 85.4077
7.98233 82.4411
7.98518 79.6257
7.98803 76.9548
7.99372 72.0132
7.99942 67.5601
8.00278 65.1365
8.00615 62.8560
8.00952 60.7077
8.01288 58.6840
8.01625 56.7754
8.01961 54.9751
8.02298 53.2753
8.02634 51.6692
8.03307 48.7128
8.03980 46.0607
8.04653 43.6740
8.05326 41.5192
8.05896 39.8550
8.06466 38.3212
8.07035 36.9042
8.07605 35.5923
8.08174 34.3750
8.08744 33.2437
8.09313 32.1902
8.09883 31.2073
8.10452 30.2886
8.11022 29.4289
8.11591 28.6228
8.12161 27.8661
8.12730 27.1544
8.13300 26.4845
8.13869 25.8529
8.14439 25.2568
8.15474 24.2552
8.16510 23.3480
8.17545 22.5237
8.18581 21.7721
8.19616 21.0847
8.20652 20.4543
8.21687 19.8747
8.22723 19.3402
8.23862 18.7989
8.25001 18.3012
8.26140 17.8424
8.27279 17.4184
8.28418 17.0256
8.29557 16.6609
8.30696 16.3217
8.31835 16.0056
8.32974 15.7104
8.34113 15.4343
8.35252 15.1756
8.36391 14.9328
8.38670 14.4900
8.40948 14.0966
8.43306 13.7337
8.45664 13.4092
8.48022 13.1179
8.50380 12.8549
8.52541 12.6356
8.54703 12.4343
8.56864 12.2491
8.59026 12.0782
8.61187 11.9200
8.63349 11.7732
8.65510 11.6368
8.67671 11.5096
8.71994 11.2798
8.76317 11.0778
8.80640 10.8990
8.84963 10.7396
8.88425 10.6240
8.91887 10.5177
8.95349 10.4198
8.98811 10.3295
9.05735 10.1678
9.12659 10.0270
9.19583 9.90367
9.26507 9.79515
9.33431 9.69919
9.40355 9.61406
9.46154 9.55008
9.51953 9.49208
9.57752 9.43953
9.63551 9.39199
9.75148 9.31061
9.86746 9.24591
9.93373 9.21595
10.0000 9.19098
10.1117 9.15990
10.2234 9.14278
10.3350 9.14047
10.3909 9.14525
10.4467 9.15427
10.5026 9.16783
10.5584 9.18623
10.6142 9.20988
10.6701 9.23923
10.7259 9.27484
10.7817 9.31732
10.8376 9.36730
10.8934 9.42546
10.9493 9.49316
11.0051 9.57192
11.0609 9.66308
11.1168 9.76827
11.1726 9.88964
11.2284 10.0297
11.2843 10.1916
11.3401 10.3792
11.3807 10.5343
11.4213 10.7077
11.4619 10.9018
11.5026 11.1198
11.5432 11.3653
11.5838 11.6424
11.6244 11.9562
11.6447 12.1288
11.6650 12.3131
11.6929 12.5876
11.7208 12.8894
11.7488 13.2220
11.7767 13.5897
11.8046 13.9972
11.8325 14.4501
11.8604 14.9552
11.8884 15.5206
11.9036 15.8578
11.9188 16.2174
11.9340 16.6018
11.9493 17.0127
11.9658 17.4935
11.9824 18.0126
11.9990 18.5740
12.0155 19.1822
12.0321 19.8430
12.0487 20.5624
12.0652 21.3473
12.0818 22.2055
12.0970 23.0658
12.1122 24.0046
12.1274 25.0320
12.1425 26.1586
12.1577 27.3993
12.1729 28.7690
12.1881 30.2863
12.2033 31.9720
12.2180 33.7957
12.2328 35.8327
12.2401 36.9419
12.2475 38.1181
12.2549 39.3668
12.2623 40.6942
12.2696 42.1073
12.2770 43.6135
12.2844 45.2215
12.2917 46.9407
12.2991 48.7820
12.3065 50.7573
12.3138 52.8803
12.3212 55.1665
12.3273 57.1877
12.3334 59.3431
12.3395 61.6450
12.3455 64.1032
12.3516 66.7414
12.3577 69.5735
12.3638 72.6193
12.3698 75.8956
12.3759 79.4388
12.3820 83.2725
12.3881 87.4295
12.3941 91.9394
12.4002 96.8591
12.4063 102.220
12.4124 108.095
12.4184 114.526
12.4248 121.957
12.4312 130.175
12.4376 139.283
12.4439 149.377
12.4503 160.612
12.4535 166.684
12.4566 173.090
12.4598 179.869
12.4630 187.000
12.4662 194.522
12.4694 202.456
12.4740 214.790
12.4786 228.110
12.4833 242.484
12.4879 257.979
12.4911 269.342
12.4943 281.252
12.4975 293.804
12.5006 306.938
12.5038 320.755
12.5070 335.184
12.5102 350.283
12.5134 366.063
12.5166 382.588
12.5197 399.760
12.5229 417.634
12.5261 436.211
12.5293 455.548
12.5325 475.517
12.5356 496.165
12.5388 517.475
12.5420 539.495
12.5452 562.061
12.5484 585.280
12.5516 608.969
12.5548 633.232
12.5579 657.867
12.5643 708.248
12.5707 759.751
12.5770 811.606
12.5834 863.286
12.5898 913.874
12.6000 990.936
12.6051 1026.60
12.6102 1059.81
12.6144 1084.96
12.6185 1107.91
12.6227 1128.55
12.6269 1146.62
12.6311 1162.01
12.6353 1174.53
12.6395 1184.10
12.6436 1190.62
12.6500 1194.58
12.6540 1193.35
12.6580 1189.29
12.6620 1182.41
12.6659 1172.82
12.6707 1157.81
12.6755 1139.22
12.6803 1117.25
12.6850 1092.15
12.6898 1064.24
12.6946 1033.82
12.6993 1001.23
12.7041 966.811
12.7127 901.739
12.7212 833.993
12.7297 765.269
12.7383 697.379
12.7468 631.561
12.7553 569.075
12.7596 539.282
12.7639 510.586
12.7681 483.044
12.7724 456.757
12.7774 427.171
12.7825 399.365
12.7875 373.225
12.7926 348.829
12.7976 326.040
12.8027 304.892
12.8077 285.273
12.8127 267.110
12.8170 252.802
12.8213 239.432
12.8256 226.948
12.8298 215.326
12.8341 204.462
12.8384 194.332
12.8426 184.889
12.8469 176.107
12.8512 167.898
12.8554 160.243
12.8597 153.101
12.8640 146.449
12.8682 140.220
12.8725 134.398
12.8768 128.951
12.8810 123.862
12.8853 119.082
12.8896 114.597
12.8938 110.385
12.8981 106.435
12.9024 102.709
12.9066 99.1979
12.9109 95.8871
12.9152 92.7684
12.9237 87.0183
12.9322 81.8664
12.9408 77.2261
12.9493 73.0306
12.9563 69.8843
12.9633 66.9761
12.9703 64.2742
12.9772 61.7660
12.9842 59.4264
12.9912 57.2463
12.9982 55.2081
13.0052 53.2995
13.0122 51.5069
13.0191 49.8254
13.0261 48.2437
13.0331 46.7538
13.0401 45.3466
13.0471 44.0196
13.0610 41.5773
13.0696 40.2086
13.0781 38.9266
13.0866 37.7213
13.0952 36.5892
13.1037 35.5220
13.1122 34.5170
13.1208 33.5672
13.1293 32.6706
13.1464 31.0181
13.1634 29.5330
13.1805 28.1931
13.1976 26.9808
13.2084 26.2671
13.2193 25.5956
13.2302 24.9625
13.2410 24.3648
13.2628 23.2652
13.2845 22.2798
13.3062 21.3925
13.3279 20.5915
13.3497 19.8655
13.3714 19.2061
13.3884 18.7295
13.4055 18.2861
13.4226 17.8730
13.4397 17.4878
13.4567 17.1282
13.4738 16.7924
13.4909 16.4785
13.5079 16.1850
13.5250 15.9105
13.5421 15.6537
13.5762 15.1890
13.6104 14.7835
13.6445 14.4318
13.6693 14.2071
13.6941 14.0075
13.7190 13.8323
13.7438 13.6812
13.7686 13.5544
13.7935 13.4527
13.8183 13.3774
13.8431 13.3307
13.8664 13.3157
13.8897 13.3322
13.9129 13.3854
13.9246 13.4279
13.9362 13.4824
13.9479 13.5503
13.9595 13.6331
13.9711 13.7328
13.9828 13.8516
13.9944 13.9923
14.0061 14.1582
14.0177 14.3534
14.0293 14.5827
14.0417 14.8726
14.0542 15.2181
14.0604 15.4157
14.0666 15.6322
14.0728 15.8697
14.0790 16.1301
14.0852 16.4170
14.0914 16.7330
14.0976 17.0816
14.1038 17.4660
14.1100 17.8918
14.1162 18.3624
14.1224 18.8848
14.1286 19.4631
14.1329 19.8978
14.1372 20.3647
14.1414 20.8663
14.1457 21.4037
14.1500 21.9819
14.1542 22.6026
14.1585 23.2683
14.1628 23.9802
14.1670 24.7443
14.1713 25.5619
14.1756 26.4356
14.1798 27.3659
14.1841 28.3595
14.1884 29.4141
14.1926 30.5366
14.1969 31.7236
14.2020 33.2191
14.2070 34.8088
14.2120 36.4991
14.2171 38.2827
14.2221 40.1643
14.2272 42.1329
14.2322 44.1869
14.2373 46.3194
14.2458 50.0862
14.2543 53.9933
14.2714 61.9559
14.2745 63.3808
14.2848 67.9411
14.2950 72.1191
14.3001 74.0117
14.3053 75.7395
14.3104 77.2889
14.3155 78.6352
14.3219 80.0081
14.3283 81.0170
14.3346 81.6454
14.3410 81.8788
14.3463 81.7700
14.3516 81.3893
14.3569 80.7420
14.3621 79.8373
14.3674 78.6877
14.3727 77.3086
14.3780 75.7183
14.3833 73.9374
14.3930 70.2237
14.4036 65.7292
14.4141 60.9393
14.4352 51.1845
14.4448 46.9500
14.4544 42.9531
14.4592 41.0602
14.4639 39.2500
14.4687 37.5221
14.4735 35.8788
14.4775 34.5761
14.4815 33.3333
14.4854 32.1503
14.4894 31.0292
14.4934 29.9635
14.4974 28.9549
14.5013 28.0019
14.5053 27.1053
14.5093 26.2586
14.5133 25.4623
14.5173 24.7144
14.5212 24.0145
14.5252 23.3571
14.5292 22.7433
14.5332 22.1679
14.5371 21.6319
14.5415 21.0820
14.5459 20.5742
14.5503 20.1036
14.5546 19.6701
14.5590 19.2693
14.5634 18.9009
14.5677 18.5619
14.5721 18.2503
14.5765 17.9637
14.5809 17.7017
14.5852 17.4614
14.5896 17.2424
14.5984 16.8603
14.6071 16.5448
14.6135 16.3507
14.6198 16.1831
14.6262 16.0381
14.6326 15.9124
14.6452 15.7078
14.6578 15.5432
14.6830 15.2499
14.6939 15.1100
14.7049 14.9506
14.7189 14.7104
14.7330 14.4284
14.7455 14.1461
14.7612 13.7616
14.7768 13.3604
14.7925 12.9621
14.8081 12.5841
14.8137 12.4573
14.8228 12.2610
14.8318 12.0786
14.8409 11.9106
14.8499 11.7570
14.8590 11.6175
14.8680 11.4918
14.8771 11.3789
14.8861 11.2780
14.8952 11.1877
14.9042 11.1074
14.9223 10.9723
14.9404 10.8653
14.9585 10.7809
14.9753 10.7195
14.9920 10.6714
15.0087 10.6352
15.0254 10.6098
15.0505 10.5909
15.0755 10.5950
15.1006 10.6234
15.1257 10.6791
15.1382 10.7188
15.1507 10.7674
15.1633 10.8263
15.1758 10.8968
15.1883 10.9808
15.2009 11.0805
15.2134 11.1990
15.2259 11.3400
15.2391 11.5186
15.2458 11.6217
15.2524 11.7353
15.2590 11.8608
15.2656 11.9996
15.2722 12.1535
15.2788 12.3242
15.2855 12.5142
15.2921 12.7253
15.2987 12.9609
15.3053 13.2233
15.3119 13.5165
15.3185 13.8430
15.3251 14.2078
15.3318 14.6136
15.3394 15.1412
15.3471 15.7367
15.3509 16.0619
15.3547 16.4063
15.3586 16.7708
15.3624 17.1561
15.3701 17.9911
15.3777 18.9153
15.3854 19.9310
15.3930 21.0370
15.3986 21.8986
15.4042 22.8056
15.4097 23.7551
15.4153 24.7434
15.4209 25.7656
15.4404 29.5163
15.4557 32.4723
15.4634 33.8792
15.4710 35.1976
15.4761 36.0106
15.4812 36.7637
15.4862 37.4489
15.4913 38.0587
15.4964 38.5862
15.5015 39.0254
15.5066 39.3713
15.5116 39.6194
15.5163 39.7603
15.5210 39.8144
15.5261 39.7751
15.5312 39.6344
15.5362 39.3942
15.5413 39.0577
15.5464 38.6291
15.5515 38.1137
15.5566 37.5178
15.5616 36.8497
15.5702 35.5768
15.5788 34.1565
15.5894 32.2438
15.6001 30.2453
15.6107 28.2340
15.6214 26.2750
15.6320 24.4152
15.6374 23.5354
15.6427 22.6953
15.6480 21.8942
15.6534 21.1355
15.6587 20.4204
15.6640 19.7504
15.6693 19.1230
15.6747 18.5389
15.6800 17.9971
15.6853 17.4962
15.6907 17.0347
15.6960 16.6107
15.7013 16.2223
15.7066 15.8683
15.7120 15.5451
15.7173 15.2514
15.7226 14.9853
15.7279 14.7452
15.7333 14.5284
15.7386 14.3335
15.7439 14.1589
15.7493 14.0034
15.7560 13.8298
15.7628 13.6819
15.7696 13.5573
15.7764 13.4537
15.7832 13.3697
15.7899 13.3036
15.7967 13.2543
15.8035 13.2210
15.8108 13.2021
15.8180 13.2001
15.8253 13.2148
15.8326 13.2459
15.8398 13.2939
15.8471 13.3592
15.8544 13.4426
15.8616 13.5452
15.8689 13.6684
15.8762 13.8138
15.8834 13.9836
15.8907 14.1800
15.8980 14.4060
15.9052 14.6642
15.9125 14.9587
15.9198 15.2923
15.9246 15.5391
15.9294 15.8060
15.9343 16.0952
15.9391 16.4068
15.9440 16.7434
15.9488 17.1046
15.9537 17.4924
15.9585 17.9076
15.9634 18.3523
15.9682 18.8252
15.9730 19.3289
15.9779 19.8618
15.9827 20.4260
15.9876 21.0192
15.9973 22.2929
16.0079 23.8211
16.0186 25.4604
16.0399 28.9348
16.0515 30.8354
16.0631 32.6441
16.0739 34.1639
16.0792 34.8504
16.0846 35.4783
16.0899 36.0410
16.0953 36.5324
16.1007 36.9476
16.1060 37.2819
16.1125 37.5758
16.1190 37.7435
16.1246 37.7861
16.1302 37.7360
16.1357 37.5955
16.1413 37.3683
16.1469 37.0591
16.1525 36.6741
16.1581 36.2201
16.1636 35.7058
16.1700 35.0536
16.1787 34.0790
16.1873 33.0357
16.2047 30.8776
16.2197 29.0926
16.2272 28.2722
16.2346 27.5184
16.2421 26.8395
16.2496 26.2444
16.2571 25.7394
16.2646 25.3290
16.2709 25.0584
16.2796 24.8004
16.2882 24.6763
16.2969 24.6876
16.3056 24.8358
16.3142 25.1231
16.3229 25.5536
16.3316 26.1334
16.3402 26.8714
16.3446 27.3040
16.3489 27.7800
16.3533 28.3037
16.3576 28.8753
16.3619 29.5001
16.3663 30.1783
16.3706 30.9147
16.3749 31.7130
16.3793 32.5794
16.3836 33.5144
16.3879 34.5272
16.3923 35.6185
16.3966 36.7990
16.4009 38.0694
16.4053 39.4388
16.4096 40.9140
16.4139 42.5062
16.4183 44.2155
16.4226 46.0579
16.4269 48.0330
16.4313 50.1584
16.4356 52.4328
16.4399 54.8753
16.4443 57.4831
16.4486 60.2768
16.4529 63.2517
16.4573 66.4290
16.4616 69.8015
16.4659 73.3910
16.4703 77.1866
16.4746 81.2102
16.4789 85.4464
16.4833 89.9166
16.4876 94.6001
16.4920 99.5167
16.4963 104.640
16.5050 115.526
16.5136 127.179
16.5223 139.480
16.5310 152.263
16.5396 165.322
16.5483 178.393
16.5515 183.114
16.5601 195.748
16.5688 207.707
16.5774 218.674
16.5861 228.338
16.5947 236.394
16.5990 239.752
16.6033 242.617
16.6076 244.980
16.6119 246.811
16.6163 248.103
16.6206 248.841
16.6237 249.028
16.6280 248.804
16.6323 248.024
16.6366 246.696
16.6409 244.835
16.6452 242.449
16.6495 239.569
16.6582 232.400
16.6613 229.365
16.6686 221.437
16.6760 212.530
16.6833 202.831
16.6907 192.531
16.7040 173.030
16.7172 153.270
16.7293 135.819
16.7353 127.457
16.7413 119.419
16.7474 111.720
16.7534 104.402
16.7594 97.4877
16.7654 90.9991
16.7721 84.3379
16.7787 78.1823
16.7853 72.5217
16.7920 67.3390
16.7986 62.6118
16.8052 58.3143
16.8118 54.4181
16.8185 50.8938
16.8227 48.8304
16.8269 46.8978
16.8311 45.0883
16.8354 43.3947
16.8396 41.8097
16.8438 40.3264
16.8480 38.9382
16.8522 37.6387
16.8565 36.4220
16.8607 35.2824
16.8649 34.2144
16.8691 33.2131
16.8733 32.2737
16.8776 31.3919
16.8818 30.5634
16.8860 29.7863
16.8928 28.6232
16.8996 27.5669
16.9064 26.6054
16.9133 25.7294
16.9201 24.9271
16.9269 24.1929
16.9337 23.5175
16.9405 22.8968
16.9473 22.3235
16.9541 21.7946
16.9610 21.3044
16.9678 20.8506
16.9746 20.4287
16.9814 20.0370
16.9950 19.3322
17.0037 18.9326
17.0124 18.5664
17.0210 18.2306
17.0297 17.9226
17.0384 17.6394
17.0470 17.3793
17.0644 16.9213
17.0817 16.5357
17.0990 16.2133
17.1164 15.9461
17.1337 15.7284
17.1526 15.5417
17.1715 15.4036
17.1905 15.3106
17.2094 15.2605
17.2314 15.2543
17.2535 15.3041
17.2756 15.4109
17.2976 15.5777
17.3197 15.8091
17.3417 16.1121
17.3528 16.2933
17.3638 16.4963
17.3748 16.7229
17.3859 16.9750
17.4032 17.4288
17.4205 17.9631
17.4292 18.2648
17.4379 18.5924
17.4466 18.9484
17.4552 19.3350
17.4639 19.7566
17.4726 20.2164
17.4812 20.7189
17.4899 21.2684
17.4986 21.8721
17.5072 22.5365
17.5159 23.2696
17.5246 24.0802
17.5348 25.1565
17.5450 26.3798
17.5502 27.0568
17.5553 27.7804
17.5604 28.5563
17.5655 29.3893
17.5707 30.2866
17.5758 31.2507
17.5809 32.2897
17.5860 33.4106
17.5911 34.6213
17.5963 35.9301
17.6014 37.3461
17.6065 38.8791
17.6108 40.2780
17.6152 41.7719
17.6195 43.3746
17.6238 45.0865
17.6282 46.9231
17.6325 48.8841
17.6368 50.9819
17.6412 53.2250
17.6455 55.6278
17.6498 58.1878
17.6542 60.9255
17.6585 63.8369
17.6629 66.9437
17.6672 70.2394
17.6715 73.7383
17.6758 77.4472
17.6814 82.4889
17.6869 87.8909
17.6924 93.6599
17.6979 99.7870
17.7034 106.293
17.7089 113.147
17.7145 120.362
17.7200 127.894
17.7286 140.351
17.7373 153.429
17.7460 166.956
17.7546 180.702
17.7610 190.722
17.7673 200.611
17.7759 213.788
17.7846 226.221
17.7932 237.595
17.8019 247.606
17.8105 255.955
17.8191 262.429
17.8234 264.903
17.8277 266.836
17.8321 268.222
17.8364 269.046
17.8395 269.290
17.8438 269.138
17.8481 268.422
17.8525 267.145
17.8568 265.325
17.8654 260.104
17.8740 252.925
17.8791 247.830
17.8843 242.177
17.8945 229.432
17.9047 215.186
17.9150 199.956
17.9266 182.159
17.9382 164.422
17.9497 147.274
17.9555 139.076
17.9613 131.182
17.9671 123.614
17.9729 116.423
17.9787 109.615
17.9845 103.202
17.9903 97.1882
17.9961 91.5745
18.0019 86.3556
18.0077 81.5224
18.0124 77.8444
18.0171 74.4087
18.0219 71.2063
18.0266 68.2274
18.0314 65.4619
18.0361 62.8993
18.0408 60.5288
18.0456 58.3398
18.0503 56.3219
18.0551 54.4646
18.0598 52.7581
18.0645 51.1928
18.0693 49.7594
18.0740 48.4493
18.0788 47.2544
18.0835 46.1693
18.0919 44.4791
18.1003 43.0726
18.1088 41.9161
18.1172 40.9866
18.1256 40.2611
18.1340 39.7244
18.1425 39.3626
18.1509 39.1674
18.1567 39.1266
18.1625 39.1608
18.1683 39.2699
18.1741 39.4542
18.1799 39.7157
18.1856 40.0553
18.1914 40.4764
18.1972 40.9824
18.2030 41.5789
18.2088 42.2689
18.2146 43.0596
18.2204 43.9580
18.2262 44.9720
18.2320 46.1108
18.2378 47.3844
18.2436 48.8037
18.2483 50.0827
18.2530 51.4746
18.2578 52.9871
18.2625 54.6283
18.2673 56.4065
18.2720 58.3304
18.2767 60.4092
18.2815 62.6519
18.2862 65.0679
18.2910 67.6665
18.2957 70.4570
18.3004 73.4483
18.3052 76.6489
18.3099 80.0669
18.3147 83.7092
18.3194 87.5738
18.3252 92.6333
18.3310 98.0422
18.3368 103.811
18.3426 109.939
18.3484 116.429
18.3541 123.247
18.3599 130.386
18.3657 137.820
18.3763 151.991
18.3868 166.784
18.3981 183.054
18.4095 199.175
18.4208 214.616
18.4322 228.801
18.4411 238.728
18.4500 247.269
18.4590 254.206
18.4679 259.364
18.4744 261.938
18.4809 263.493
18.4866 264.014
18.4923 263.763
18.4980 262.762
18.5037 261.049
18.5133 256.621
18.5230 250.539
18.5327 243.151
18.5423 234.855
18.5510 227.018
18.5596 219.127
18.5683 211.490
18.5769 204.413
18.5824 200.335
18.5879 196.675
18.5934 193.499
18.5989 190.872
18.6044 188.852
18.6099 187.495
18.6154 186.852
18.6209 186.967
18.6248 187.537
18.6288 188.530
18.6327 189.958
18.6366 191.826
18.6405 194.155
18.6445 196.947
18.6484 200.211
18.6523 203.940
18.6562 208.159
18.6602 212.859
18.6641 218.040
18.6680 223.687
18.6720 229.823
18.6759 236.429
18.6837 250.992
18.6892 262.238
18.6947 274.293
18.7002 287.097
18.7057 300.584
18.7103 312.251
18.7149 324.256
18.7240 349.120
18.7331 374.711
18.7422 400.384
18.7489 418.967
18.7556 436.961
18.7623 454.119
18.7690 470.165
18.7750 483.288
18.7810 495.123
18.7869 505.525
18.7929 514.346
18.7995 522.166
18.8061 527.707
18.8128 530.863
18.8194 531.568
18.8248 530.315
18.8302 527.436
18.8356 522.958
18.8410 516.929
18.8464 509.399
18.8518 500.475
18.8572 490.222
18.8626 478.784
18.8680 466.239
18.8734 452.759
18.8842 423.459
18.8928 398.611
18.9014 372.940
18.9099 346.925
18.9185 321.030
18.9270 295.664
18.9356 271.174
18.9441 247.835
18.9527 225.857
18.9604 207.162
18.9682 189.798
18.9760 173.746
18.9799 166.221
18.9838 159.043
18.9876 152.172
18.9915 145.620
18.9954 139.381
18.9993 133.460
19.0032 127.820
19.0071 122.478
19.0110 117.398
19.0148 112.596
19.0191 107.592
19.0234 102.893
19.0277 98.4619
19.0319 94.3050
19.0362 90.3885
19.0405 86.7168
19.0448 83.2588
19.0490 80.0175
19.0533 76.9649
19.0576 74.1030
19.0619 71.4065
19.0661 68.8770
19.0704 66.4919
19.0747 64.2523
19.0790 62.1384
19.0832 60.1511
19.0887 57.7781
19.0941 55.5776
19.0996 53.5305
19.1050 51.6235
19.1105 49.8445
19.1159 48.1826
19.1213 46.6278
19.1268 45.1710
19.1322 43.8017
19.1377 42.5174
19.1431 41.3088
19.1485 40.1699
19.1594 38.0798
19.1703 36.2090
19.1789 34.8707
19.1874 33.6374
19.1960 32.4963
19.2045 31.4381
19.2131 30.4544
19.2216 29.5379
19.2302 28.6823
19.2387 27.8822
19.2473 27.1316
19.2558 26.4281
19.2644 25.7668
19.2729 25.1443
19.2900 24.0036
19.3071 22.9851
19.3242 22.0711
19.3413 21.2489
19.3584 20.5064
19.3755 19.8342
19.3926 19.2247
19.4097 18.6717
19.4268 18.1704
19.4439 17.7171
19.4626 17.2747
19.4813 16.8859
19.4999 16.5513
19.5186 16.2736
19.5372 16.0560
19.5559 15.9023
19.5745 15.8141
19.5932 15.7892
19.6134 15.8234
19.6336 15.9000
19.6538 15.9868
19.6740 16.0447
19.6834 16.0508
19.6928 16.0389
19.7052 15.9902
19.7177 15.9002
19.7302 15.7669
19.7427 15.5915
19.7516 15.4429
19.7605 15.2773
19.7783 14.9056
19.8139 14.0894
19.8313 13.7028
19.8486 13.3460
19.8660 13.0283
19.8833 12.7536
19.9006 12.5207
19.9180 12.3264
19.9353 12.1656
19.9526 12.0334
19.9645 11.9568
19.9763 11.8902
20.0000 11.7821
20.0238 11.7026
20.0476 11.6488
20.0739 11.6179
20.1001 11.6173
20.1264 11.6500
20.1395 11.6804
20.1526 11.7214
20.1658 11.7741
20.1789 11.8400
20.1920 11.9209
20.2052 12.0192
20.2183 12.1378
20.2314 12.2805
20.2445 12.4522
20.2577 12.6591
20.2699 12.8900
20.2760 13.0220
20.2820 13.1664
20.2881 13.3249
20.2942 13.4990
20.3003 13.6902
20.3064 13.9001
20.3125 14.1316
20.3186 14.3865
20.3247 14.6673
20.3308 14.9764
20.3369 15.3177
20.3430 15.6933
20.3491 16.1078
20.3552 16.5634
20.3599 16.9460
20.3646 17.3567
20.3693 17.7980
20.3740 18.2717
20.3787 18.7809
20.3834 19.3251
20.3881 19.9072
20.3927 20.5288
20.3974 21.1931
20.4021 21.8985
20.4068 22.6479
20.4115 23.4423
20.4162 24.2844
20.4209 25.1711
20.4256 26.1045
20.4303 27.0844
20.4352 28.1617
20.4401 29.2863
20.4499 31.6785
20.4598 34.2402
20.4696 36.9400
20.4893 42.5766
20.4991 45.3957
20.5089 48.1258
20.5161 50.0135
20.5266 52.5684
20.5318 53.7243
20.5371 54.7828
20.5423 55.7380
20.5476 56.5771
20.5528 57.2950
20.5581 57.8820
20.5627 58.2927
20.5674 58.5916
20.5721 58.7764
20.5768 58.8455
20.5819 58.7900
20.5869 58.5995
20.5920 58.2758
20.5971 57.8223
20.6022 57.2433
20.6072 56.5445
20.6123 55.7324
20.6174 54.8164
20.6267 52.8753
20.6375 50.3074
20.6482 47.4765
20.6697 41.4025
20.6805 38.3390
20.6912 35.3638
20.7020 32.5336
20.7074 31.1859
20.7127 29.8924
20.7196 28.3221
20.7264 26.8474
20.7333 25.4686
20.7401 24.1865
20.7470 22.9985
20.7538 21.9058
20.7606 20.9035
20.7675 19.9874
20.7729 19.3244
20.7782 18.7093
20.7836 18.1396
20.7890 17.6135
20.7944 17.1265
20.7997 16.6778
20.8051 16.2630
20.8105 15.8812
20.8159 15.5287
20.8212 15.2038
20.8266 14.9045
20.8320 14.6290
20.8374 14.3746
20.8427 14.1404
20.8481 13.9238
20.8535 13.7241
20.8638 13.3833
20.8740 13.0897
20.8843 12.8354
20.8946 12.6151
20.9048 12.4233
20.9151 12.2564
20.9254 12.1106
20.9356 11.9836
20.9459 11.8727
20.9561 11.7764
20.9664 11.6929
20.9767 11.6211
20.9972 11.5084
21.0177 11.4320
21.0334 11.3954
21.0549 11.3731
21.0764 11.3816
21.0979 11.4203
21.1194 11.4897
21.1409 11.5914
21.1624 11.7282
21.1839 11.9043
21.1947 12.0089
21.2054 12.1256
21.2240 12.3592
21.2333 12.4930
21.2426 12.6393
21.2519 12.7996
21.2611 12.9749
21.2704 13.1672
21.2797 13.3780
21.2890 13.6098
21.2983 13.8650
21.3076 14.1463
21.3169 14.4570
21.3261 14.8016
21.3354 15.1843
21.3447 15.6115
21.3540 16.0889
21.3594 16.3919
21.3648 16.7164
21.3701 17.0643
21.3755 17.4369
21.3809 17.8381
21.3863 18.2698
21.3916 18.7347
21.3970 19.2351
21.4024 19.7763
21.4078 20.3609
21.4132 20.9931
21.4185 21.6759
21.4239 22.4165
21.4293 23.2172
21.4347 24.0863
21.4400 25.0263
21.4444 25.8547
21.4488 26.7393
21.4532 27.6835
21.4576 28.6910
21.4620 29.7656
21.4664 30.9111
21.4708 32.1313
21.4752 33.4271
21.4796 34.8081
21.4840 36.2752
21.4884 37.8319
21.4928 39.4818
21.4972 41.2280
21.5016 43.0734
21.5060 45.0206
21.5104 47.0669
21.5158 49.7182
21.5212 52.5292
21.5265 55.5005
21.5319 58.6249
21.5373 61.9112
21.5427 65.3425
21.5480 68.9244
21.5534 72.6346
21.5642 80.4261
21.5749 88.5814
21.5857 96.9488
21.5964 105.334
21.6082 114.241
21.6179 121.244
21.6277 127.663
21.6374 133.321
21.6472 138.047
21.6553 141.165
21.6635 143.461
21.6716 144.890
21.6797 145.415
21.6846 145.293
21.6894 144.843
21.6943 144.071
21.6992 142.985
21.7040 141.590
21.7089 139.904
21.7186 135.703
21.7272 131.160
21.7359 125.956
21.7445 120.213
21.7531 114.057
21.7699 101.294
21.7868 88.3344
21.7960 81.4559
21.8052 74.8483
21.8144 68.5728
21.8236 62.6986
21.8320 57.6827
21.8362 55.3164
21.8404 53.0511
21.8447 50.8763
21.8489 48.8021
21.8531 46.8178
21.8573 44.9314
21.8615 43.1324
21.8657 41.4271
21.8700 39.8053
21.8742 38.2719
21.8784 36.8168
21.8826 35.4441
21.8868 34.1440
21.8910 32.9196
21.8952 31.7617
21.8995 30.6728
21.9037 29.6442
21.9079 28.6778
21.9121 27.7657
21.9163 26.9091
21.9205 26.1010
21.9247 25.3423
21.9290 24.6265
21.9332 23.9544
21.9374 23.3202
21.9416 22.7243
21.9458 22.1617
21.9500 21.6328
21.9585 20.6625
21.9665 19.8350
21.9746 19.0923
21.9826 18.4239
21.9907 17.8215
21.9987 17.2756
22.0068 16.7800
22.0148 16.3290
22.0228 15.9176
22.0309 15.5405
22.0389 15.1943
22.0470 14.8757
22.0550 14.5820
22.0631 14.3100
22.0711 14.0580
22.0792 13.8239
22.0872 13.6063
22.0987 13.3204
22.1102 13.0609
22.1217 12.8248
22.1332 12.6095
22.1447 12.4125
22.1562 12.2320
22.1677 12.0662
22.1792 11.9139
22.2022 11.6443
22.2252 11.4152
22.2482 11.2204
22.2712 11.0552
22.2865 10.9600
22.3018 10.8757
22.3171 10.8020
22.3325 10.7384
22.3478 10.6850
22.3631 10.6416
22.3785 10.6084
22.3938 10.5854
22.4132 10.5709
22.4325 10.5723
22.4519 10.5880
22.4713 10.6157
22.5487 10.7613
22.5746 10.7903
22.6125 10.8035
22.6504 10.8029
22.6772 10.8146
22.7040 10.8506
22.7308 10.9200
22.7576 11.0279
22.7710 11.0973
22.7844 11.1776
22.7978 11.2690
22.8112 11.3721
22.8246 11.4875
22.8380 11.6162
22.8514 11.7591
22.8648 11.9176
22.8839 12.1749
22.9031 12.4739
22.9222 12.8233
22.9318 13.0205
22.9414 13.2350
22.9509 13.4690
22.9605 13.7249
22.9701 14.0059
22.9796 14.3154
22.9892 14.6578
22.9988 15.0379
23.0084 15.4618
23.0179 15.9365
23.0246 16.3035
23.0313 16.7028
23.0380 17.1380
23.0447 17.6133
23.0514 18.1332
23.0581 18.7027
23.0648 19.3272
23.0715 20.0116
23.0782 20.7645
23.0849 21.5918
23.0916 22.5009
23.0983 23.4994
23.1050 24.5954
23.1117 25.7971
23.1184 27.1128
23.1251 28.5484
23.1321 30.1942
23.1391 31.9911
23.1462 33.9466
23.1532 36.0638
23.1602 38.3532
23.1672 40.8143
23.1742 43.4472
23.1812 46.2451
23.1879 49.0714
23.1946 52.0382
23.2013 55.1344
23.2080 58.3455
23.2214 65.0387
23.2348 71.9333
23.2489 79.1384
23.2629 86.0192
23.2655 87.2107
23.2736 90.8643
23.2818 94.2166
23.2899 97.2144
23.2981 99.8052
23.3048 101.596
23.3115 103.063
23.3182 104.188
23.3249 104.961
23.3347 105.452
23.3446 105.179
23.3544 104.173
23.3643 102.488
23.3705 101.097
23.3768 99.4859
23.3835 97.5141
23.3903 95.3465
23.4039 90.5741
23.4175 85.4782
23.4311 80.3685
23.4423 76.3281
23.4536 72.6366
23.4592 70.9610
23.4649 69.4251
23.4705 68.0407
23.4761 66.8218
23.4835 65.4916
23.4909 64.5000
23.4983 63.8715
23.5057 63.6317
23.5102 63.6863
23.5147 63.8986
23.5192 64.2749
23.5237 64.8190
23.5282 65.5388
23.5327 66.4365
23.5372 67.5216
23.5417 68.7947
23.5462 70.2670
23.5507 71.9372
23.5552 73.8182
23.5597 75.9067
23.5642 78.2170
23.5687 80.7435
23.5732 83.4954
23.5777 86.4765
23.5835 90.6870
23.5893 95.2935
23.5951 100.299
23.6009 105.695
23.6067 111.496
23.6126 117.677
23.6184 124.248
23.6242 131.172
23.6348 144.646
23.6453 159.079
23.6559 174.274
23.6665 189.919
23.6771 205.702
23.6876 221.206
23.6982 236.039
23.7088 249.737
23.7172 259.535
23.7256 268.146
23.7340 275.384
23.7424 281.082
23.7481 284.015
23.7538 286.147
23.7595 287.454
23.7652 287.922
23.7726 287.283
23.7799 285.255
23.7873 281.872
23.7946 277.200
23.8027 270.705
23.8107 262.904
23.8187 253.943
23.8268 243.992
23.8337 234.733
23.8406 225.007
23.8545 204.589
23.8672 185.385
23.8799 166.381
23.8926 148.110
23.8990 139.374
23.9053 130.979
23.9117 122.929
23.9180 115.273
23.9244 108.003
23.9307 101.152
23.9371 94.7028
23.9435 88.6735
23.9498 83.0394
23.9562 77.8085
23.9608 74.2353
23.9654 70.8657
23.9700 67.6853
23.9747 64.6871
23.9793 61.8579
23.9839 59.2022
23.9885 56.7062
23.9931 54.3618
23.9978 52.1568
24.0024 50.0928
24.0070 48.1575
24.0116 46.3432
24.0163 44.6429
24.0209 43.0494
24.0255 41.5561
24.0301 40.1566
24.0365 38.3721
24.0428 36.7410
24.0492 35.2444
24.0555 33.8741
24.0619 32.6142
24.0682 31.4580
24.0746 30.3921
24.0810 29.4112
24.0873 28.5043
24.0937 27.6671
24.1000 26.8907
24.1064 26.1717
24.1127 25.5029
24.1191 24.8817
24.1254 24.3022
24.1318 23.7624
24.1410 23.0390
24.1503 22.3831
24.1595 21.7857
24.1688 21.2418
24.1780 20.7448
24.1873 20.2911
24.1965 19.8760
24.2057 19.4962
24.2150 19.1484
24.2242 18.8306
24.2335 18.5400
24.2427 18.2752
24.2612 17.8160
24.2797 17.4425
24.2982 17.1471
24.3167 16.9253
24.3352 16.7750
24.3536 16.6963
24.3636 16.6845
24.3735 16.6951
24.3835 16.7291
24.3934 16.7880
24.4034 16.8738
24.4133 16.9887
24.4233 17.1358
24.4332 17.3183
24.4432 17.5411
24.4531 17.8093
24.4631 18.1296
24.4730 18.5094
24.4830 18.9589
24.4929 19.4891
24.5029 20.1133
24.5128 20.8466
24.5179 21.2710
24.5230 21.7308
24.5281 22.2306
24.5332 22.7715
24.5383 23.3588
24.5434 23.9937
24.5485 24.6808
24.5536 25.4238
24.5587 26.2281
24.5637 27.0945
24.5688 28.0304
24.5739 29.0361
24.5790 30.1196
24.5841 31.2805
24.5892 32.5248
24.5943 33.8560
24.5986 35.0480
24.6029 36.3060
24.6072 37.6317
24.6115 39.0232
24.6200 42.0244
24.6286 45.3082
24.6372 48.8818
24.6458 52.7297
24.6543 56.8452
24.6629 61.1943
24.6715 65.7532
24.6801 70.4729
24.6972 80.1648
24.7122 88.5526
24.7197 92.5872
24.7272 96.4343
24.7362 100.775
24.7453 104.667
24.7544 108.019
24.7634 110.746
24.7705 112.395
24.7775 113.599
24.7846 114.344
24.7916 114.615
24.8010 114.236
24.8104 113.023
24.8198 111.008
24.8292 108.253
24.8378 105.130
24.8464 101.515
24.8551 97.4840
24.8637 93.1266
24.8810 83.7361
24.8982 74.0247
24.9092 67.9437
24.9202 62.0873
24.9312 56.5512
24.9367 53.9236
24.9422 51.4048
24.9508 47.6624
24.9595 44.2006
24.9681 41.0237
24.9724 39.5415
24.9768 38.1323
24.9811 36.7885
24.9854 35.5120
24.9897 34.3013
24.9940 33.1544
24.9984 32.0696
25.0027 31.0446
25.0070 30.0773
25.0113 29.1675
25.0180 27.8610
25.0247 26.6747
25.0313 25.5964
25.0380 24.6210
25.0447 23.7373
25.0514 22.9405
25.0580 22.2218
25.0647 21.5745
25.0714 20.9913
25.0780 20.4684
25.0847 19.9988
25.0914 19.5791
25.0981 19.2037
25.1047 18.8698
25.1114 18.5733
25.1181 18.3110
25.1259 18.0418
25.1338 17.8122
25.1416 17.6180
25.1495 17.4557
25.1573 17.3222
25.1652 17.2146
25.1809 17.0656
25.1998 16.9782
25.2188 16.9574
25.2566 16.9773
25.2825 16.9387
25.2954 16.8838
25.3083 16.8011
25.3294 16.6069
25.3505 16.3508
25.3927 15.7511
25.4231 15.3487
25.4383 15.1813
25.4535 15.0434
25.4716 14.9207
25.4897 14.8430
25.5077 14.8082
25.5258 14.8127
25.5438 14.8523
25.5619 14.9230
25.5799 15.0213
25.5980 15.1441
25.6341 15.4566
25.6702 15.8518
25.7063 16.3293
25.7424 16.8946
25.7728 17.4459
25.8033 18.0753
25.8337 18.7944
25.8641 19.6183
25.8793 20.0760
25.8945 20.5679
25.9097 21.0982
25.9249 21.6709
25.9401 22.2919
25.9553 22.9669
25.9705 23.7041
25.9857 24.5132
26.0057 25.7059
26.0156 26.3677
26.0256 27.0806
26.0356 27.8512
26.0456 28.6875
26.0556 29.5987
26.0655 30.5948
26.0755 31.6902
26.0855 32.8985
26.0955 34.2364
26.1055 35.7227
26.1154 37.3783
26.1254 39.2263
26.1354 41.2915
26.1454 43.5975
26.1558 46.3068
26.1663 49.3397
26.1767 52.7270
26.1872 56.4928
26.1976 60.6597
26.2081 65.2297
26.2185 70.2057
26.2290 75.5741
26.2423 82.9326
26.2489 86.8008
26.2556 90.7758
26.2623 94.8447
26.2689 98.9736
26.2756 103.144
26.2822 107.331
26.2889 111.505
26.2955 115.637
26.3088 123.656
26.3181 128.985
26.3275 133.974
26.3368 138.549
26.3462 142.646
26.3535 145.491
26.3608 148.001
26.3681 150.167
26.3754 151.988
26.3843 153.755
26.3932 155.044
26.4021 155.898
26.4110 156.376
26.4175 156.531
26.4384 156.352
26.4489 156.172
26.4593 156.173
26.4682 156.454
26.4770 157.118
26.4888 158.811
26.4969 160.648
26.5050 163.142
26.5131 166.401
26.5212 170.520
26.5293 175.621
26.5333 178.574
26.5373 181.808
26.5414 185.356
26.5454 189.225
26.5495 193.434
26.5535 197.990
26.5576 202.935
26.5616 208.277
26.5657 214.038
26.5697 220.224
26.5738 226.890
26.5778 234.044
26.5819 241.712
26.5859 249.899
26.5900 258.673
26.5940 268.044
26.5981 278.040
26.6021 288.664
26.6062 300.002
26.6102 312.058
26.6143 324.866
26.6183 338.424
26.6222 352.175
26.6260 366.663
26.6299 381.993
26.6338 398.114
26.6376 415.139
26.6415 433.006
26.6453 451.786
26.6492 471.504
26.6531 492.239
26.6569 513.906
26.6608 536.638
26.6647 560.335
26.6685 585.135
26.6724 610.922
26.6763 637.768
26.6801 665.677
26.6842 696.105
26.6882 727.700
26.6923 760.452
26.6963 794.261
26.7044 865.370
26.7125 940.586
26.7206 1019.71
26.7287 1102.13
26.7368 1187.20
26.7449 1274.05
26.7611 1449.81
26.7773 1620.89
26.7857 1704.98
26.7941 1783.85
26.8025 1856.14
26.8109 1920.52
26.8211 1985.78
26.8312 2035.98
26.8363 2055.02
26.8413 2069.76
26.8464 2080.14
26.8514 2086.09
26.8548 2087.57
26.8615 2084.55
26.8670 2076.27
26.8725 2062.86
26.8780 2044.41
26.8834 2021.14
26.8889 1993.17
26.8944 1960.85
26.8999 1924.33
26.9053 1884.06
26.9129 1822.89
26.9204 1756.00
26.9280 1684.36
26.9355 1609.07
26.9502 1454.67
26.9650 1296.71
26.9777 1162.24
26.9904 1033.06
26.9968 971.292
27.0031 911.740
27.0095 854.605
27.0158 800.041
27.0232 740.166
27.0306 684.063
27.0379 631.614
27.0453 582.940
27.0527 537.841
27.0600 496.327
27.0674 458.144
27.0748 423.228
27.0821 391.300
27.0895 362.251
27.0969 335.800
27.1042 311.818
27.1116 290.039
27.1189 270.329
27.1263 252.452
27.1337 236.280
27.1410 221.606
27.1484 208.320
27.1558 196.246
27.1631 185.291
27.1705 175.310
27.1779 166.225
27.1852 157.920
27.1926 150.333
27.2000 143.370
27.2073 136.984
27.2147 131.098
27.2221 125.677
27.2294 120.659
27.2368 116.019
27.2441 111.713
27.2515 107.709
27.2609 102.990
27.2703 98.6729
27.2797 94.7043
27.2891 91.0556
27.2985 87.6873
27.3079 84.5793
27.3173 81.7021
27.3267 79.0422
27.3361 76.5775
27.3455 74.2996
27.3549 72.1925
27.3642 70.2519
27.3736 68.4669
27.3830 66.8366
27.3924 65.3550
27.4018 64.0244
27.4135 62.5761
27.4252 61.3692
27.4369 60.4124
27.4486 59.7228
27.4604 59.3190
27.4721 59.2253
27.4838 59.4685
27.4955 60.0770
27.5016 60.5499
27.5077 61.1344
27.5138 61.8344
27.5199 62.6518
27.5260 63.5923
27.5321 64.6552
27.5382 65.8455
27.5443 67.1600
27.5504 68.6027
27.5565 70.1701
27.5687 73.6633
27.5810 77.6017
27.5932 81.9194
27.6147 90.1521
27.6362 98.5517
27.6519 104.257
27.6597 106.850
27.6675 109.204
27.6761 111.470
27.6847 113.345
27.6933 114.786
27.7019 115.753
27.7097 116.199
27.7175 116.220
27.7269 115.673
27.7363 114.510
27.7457 112.752
27.7551 110.439
27.7642 107.714
27.7733 104.575
27.7824 101.079
27.7915 97.3003
27.8102 88.9156
27.8289 80.2299
27.8460 72.5223
27.8545 68.8424
27.8630 65.3200
27.8715 61.9781
27.8801 58.8338
27.8886 55.8980
27.8971 53.1796
27.9043 51.0332
27.9116 49.0438
27.9188 47.2048
27.9261 45.5115
27.9333 43.9577
27.9405 42.5367
27.9478 41.2410
27.9550 40.0628
27.9623 38.9941
27.9695 38.0269
27.9767 37.1536
27.9840 36.3665
27.9912 35.6584
27.9985 35.0228
28.0057 34.4532
28.0129 33.9440
28.0215 33.4148
28.0300 32.9540
28.0385 32.5549
28.0470 32.2114
28.0641 31.6713
28.0811 31.3007
28.0998 31.0607
28.1186 30.9767
28.1373 31.0369
28.1561 31.2366
28.1748 31.5772
28.1935 32.0656
28.2123 32.7144
28.2310 33.5431
28.2404 34.0335
28.2498 34.5793
28.2591 35.1861
28.2685 35.8597
28.2779 36.6072
28.2872 37.4365
28.2966 38.3573
28.3060 39.3806
28.3154 40.5196
28.3247 41.7897
28.3341 43.2090
28.3435 44.7988
28.3528 46.5838
28.3622 48.5930
28.3716 50.8601
28.3809 53.4239
28.3861 54.9659
28.3912 56.6145
28.3963 58.3811
28.4014 60.2747
28.4065 62.3053
28.4116 64.4830
28.4167 66.8188
28.4218 69.3240
28.4270 72.0163
28.4321 74.8976
28.4372 77.9859
28.4423 81.2946
28.4474 84.8374
28.4525 88.6283
28.4576 92.6813
28.4627 97.0104
28.4674 101.239
28.4721 105.722
28.4768 110.470
28.4815 115.482
28.4862 120.789
28.4908 126.376
28.4955 132.275
28.5002 138.466
28.5049 144.983
28.5096 151.800
28.5143 158.950
28.5190 166.402
28.5283 182.271
28.5377 199.370
28.5445 212.550
28.5513 226.283
28.5607 246.013
28.5701 266.545
28.5794 287.657
28.5888 309.083
28.5982 330.522
28.6075 351.637
28.6169 372.068
28.6263 391.445
28.6346 407.538
28.6430 422.221
28.6514 435.285
28.6597 446.483
28.6680 455.545
28.6762 462.470
28.6845 467.152
28.6927 469.526
28.7010 469.573
28.7092 467.312
28.7190 461.804
28.7287 453.420
28.7384 442.421
28.7481 429.174
28.7551 418.519
28.7621 407.065
28.7690 394.977
28.7760 382.425
28.7874 361.324
28.7988 340.168
28.8102 319.661
28.8215 300.450
28.8285 289.588
28.8355 279.567
28.8424 270.479
28.8494 262.425
28.8564 255.495
28.8633 249.767
28.8703 245.315
28.8772 242.199
28.8823 240.806
28.8874 240.166
28.8943 240.551
28.9013 242.430
28.9082 245.832
28.9152 250.779
28.9222 257.282
28.9291 265.346
28.9361 274.963
28.9430 286.118
28.9487 296.377
28.9544 307.602
28.9601 319.804
28.9658 332.903
28.9715 346.899
28.9772 361.692
28.9829 377.271
28.9886 393.512
28.9937 408.501
28.9987 423.884
29.0038 439.623
29.0089 455.648
29.0190 488.277
29.0291 521.046
29.0430 565.104
29.0570 606.117
29.0681 635.457
29.0792 660.603
29.0873 675.673
29.0953 687.830
29.1033 696.865
29.1114 702.602
29.1210 704.975
29.1290 703.143
29.1370 697.873
29.1465 687.383
29.1559 672.493
29.1654 653.553
29.1748 631.021
29.1816 612.704
29.1885 592.991
29.1953 572.043
29.2021 550.143
29.2108 521.179
29.2195 491.438
29.2282 461.354
29.2369 431.328
29.2506 385.130
29.2574 362.783
29.2643 341.147
29.2711 320.260
29.2779 300.265
29.2848 281.166
29.2916 263.065
29.2985 245.938
29.3053 229.828
29.3121 214.735
29.3190 200.668
29.3258 187.565
29.3326 175.435
29.3395 164.207
29.3463 153.872
29.3522 145.601
29.3581 137.934
29.3640 130.813
29.3699 124.229
29.3758 118.129
29.3817 112.502
29.3876 107.306
29.3935 102.512
29.3994 98.0824
29.4053 94.0062
29.4112 90.2494
29.4171 86.7877
29.4231 83.5930
29.4290 80.6550
29.4349 77.9484
29.4408 75.4550
29.4476 72.8096
29.4544 70.4085
29.4613 68.2237
29.4681 66.2432
29.4749 64.4447
29.4818 62.8191
29.4886 61.3493
29.4954 60.0288
29.5023 58.8448
29.5091 57.7933
29.5159 56.8653
29.5228 56.0587
29.5296 55.3678
29.5364 54.7926
29.5433 54.3302
29.5501 53.9823
29.5576 53.7336
29.5650 53.6250
29.5725 53.6608
29.5799 53.8465
29.5865 54.1379
29.5930 54.5544
29.5995 55.1033
29.6060 55.7897
29.6126 56.6226
29.6191 57.6068
29.6256 58.7532
29.6321 60.0658
29.6387 61.5563
29.6452 63.2276
29.6517 65.0915
29.6582 67.1485
29.6648 69.4102
29.6713 71.8735
29.6778 74.5441
29.6843 77.4229
29.6912 80.6651
29.6980 84.1306
29.7049 87.8120
29.7117 91.6930
29.7254 100.015
29.7390 108.940
29.7502 116.543
29.7614 124.252
29.7726 131.905
29.7838 139.320
29.7987 148.509
29.8066 152.959
29.8146 156.999
29.8226 160.572
29.8306 163.622
29.8376 165.857
29.8447 167.631
29.8518 168.928
29.8588 169.738
29.8674 170.072
29.8761 169.696
29.8847 168.644
29.8933 166.966
29.8965 166.215
29.9074 163.051
29.9184 159.204
29.9294 154.881
29.9404 150.311
29.9527 145.178
29.9650 140.376
29.9773 136.246
29.9835 134.535
29.9896 133.112
29.9975 131.774
30.0053 131.031
30.0132 130.948
30.0210 131.584
30.0272 132.619
30.0333 134.151
30.0395 136.196
30.0456 138.768
30.0518 141.880
30.0580 145.538
30.0641 149.743
30.0703 154.488
30.0764 159.780
30.0826 165.601
30.0888 171.934
30.0949 178.759
30.1011 186.046
30.1072 193.764
30.1196 210.328
30.1285 223.141
30.1375 236.403
30.1498 255.007
30.1621 273.513
30.1744 291.302
30.1868 307.737
30.1956 318.322
30.2044 327.664
30.2132 335.579
30.2220 341.897
30.2286 345.488
30.2352 348.060
30.2417 349.585
30.2483 350.038
30.2541 349.549
30.2598 348.236
30.2656 346.104
30.2713 343.179
30.2805 336.919
30.2897 328.824
30.2989 319.063
30.3080 307.836
30.3211 289.739
30.3342 269.817
30.3473 248.785
30.3604 227.327
30.3735 206.063
30.3866 185.537
30.3931 175.664
30.3997 166.134
30.4062 156.954
30.4128 148.177
30.4193 139.799
30.4258 131.859
30.4324 124.341
30.4389 117.272
30.4440 112.101
30.4491 107.188
30.4541 102.530
30.4592 98.1300
30.4642 93.9645
30.4693 90.0357
30.4743 86.3363
30.4794 82.8649
30.4845 79.5994
30.4895 76.5381
30.4946 73.6721
30.4996 70.9974
30.5047 68.4946
30.5097 66.1646
30.5148 63.9894
30.5198 61.9692
30.5264 59.5596
30.5329 57.3752
30.5395 55.3933
30.5460 53.6048
30.5526 51.9904
30.5591 50.5421
30.5657 49.2459
30.5722 48.0914
30.5787 47.0681
30.5853 46.1710
30.5918 45.3907
30.5984 44.7238
30.6049 44.1636
30.6115 43.7083
30.6180 43.3545
30.6245 43.1008
30.6341 42.9094
30.6436 42.9314
30.6501 43.0736
30.6567 43.3226
30.6632 43.6832
30.6698 44.1593
30.6763 44.7583
30.6829 45.4850
30.6894 46.3490
30.6959 47.3559
30.7025 48.5174
30.7090 49.8392
30.7156 51.3351
30.7221 53.0102
30.7287 54.8799
30.7352 56.9481
30.7418 59.2272
30.7483 61.7261
30.7554 64.7149
30.7626 67.9844
30.7697 71.5419
30.7769 75.3917
30.7840 79.5354
30.7911 83.9708
30.7983 88.6920
30.8054 93.6812
30.8120 98.4933
30.8185 103.501
30.8316 114.050
30.8447 125.128
30.8578 136.464
30.8697 146.743
30.8816 156.716
30.8946 166.990
30.9012 171.741
30.9077 176.163
30.9165 181.508
30.9253 186.087
30.9340 189.821
30.9428 192.629
30.9526 194.610
30.9624 195.313
30.9706 194.911
30.9787 193.618
30.9869 191.456
30.9950 188.467
31.0042 184.160
31.0134 178.952
31.0226 172.951
31.0318 166.285
31.0397 160.123
31.0476 153.642
31.0634 140.068
31.0849 121.175
31.0956 111.951
31.1064 103.077
31.1143 96.8448
31.1222 90.8894
31.1301 85.2364
31.1380 79.9042
31.1458 74.9043
31.1537 70.2419
31.1616 65.9168
31.1695 61.9239
31.1749 59.3872
31.1803 56.9971
31.1857 54.7494
31.1910 52.6391
31.1964 50.6612
31.2018 48.8102
31.2072 47.0805
31.2125 45.4692
31.2179 43.9644
31.2233 42.5636
31.2287 41.2609
31.2341 40.0529
31.2394 38.9296
31.2448 37.8881
31.2502 36.9232
31.2556 36.0317
31.2627 34.9449
31.2699 33.9673
31.2771 33.0893
31.2842 32.3023
31.2914 31.5987
31.2986 30.9712
31.3058 30.4138
31.3129 29.9209
31.3201 29.4876
31.3273 29.1098
31.3344 28.7839
31.3416 28.5069
31.3488 28.2763
31.3559 28.0901
31.3631 27.9469
31.3703 27.8457
31.3782 27.7822
31.3861 27.7688
31.3940 27.8060
31.4018 27.8952
31.4097 28.0383
31.4176 28.2380
31.4255 28.4978
31.4334 28.8215
31.4413 29.2154
31.4492 29.6852
31.4571 30.2384
31.4649 30.8827
31.4728 31.6294
31.4807 32.4890
31.4886 33.4742
31.4965 34.5974
31.5019 35.4522
31.5073 36.3845
31.5126 37.4001
31.5180 38.5050
31.5234 39.7054
31.5288 41.0081
31.5342 42.4199
31.5395 43.9450
31.5449 45.5965
31.5503 47.3789
31.5557 49.3000
31.5610 51.3670
31.5664 53.5877
31.5718 55.9691
31.5772 58.5185
31.5826 61.2371
31.5904 65.5596
31.5983 70.2875
31.6062 75.4338
31.6141 80.9997
31.6220 87.0018
31.6299 93.4294
31.6378 100.271
31.6457 107.496
31.6571 118.663
31.6686 130.462
31.6801 142.730
31.6915 155.254
31.7045 169.339
31.7174 183.014
31.7253 190.982
31.7331 198.519
31.7410 205.542
31.7489 211.935
31.7576 218.140
31.7662 223.363
31.7749 227.515
31.7836 230.518
31.7914 232.204
31.7993 232.864
31.8072 232.489
31.8151 231.082
31.8230 228.669
31.8309 225.287
31.8393 220.691
31.8477 215.144
31.8560 208.741
31.8644 201.590
31.8725 194.134
31.8805 186.212
31.8966 169.379
31.9127 151.912
31.9288 134.583
31.9365 126.548
31.9441 118.747
31.9518 111.225
31.9595 104.031
31.9672 97.1748
31.9749 90.6883
31.9825 84.5850
31.9902 78.8793
31.9986 73.0910
32.0070 67.7678
32.0111 65.2712
32.0153 62.8898
32.0195 60.6096
32.0237 58.4391
32.0279 56.3649
32.0321 54.3894
32.0363 52.5094
32.0404 50.7258
32.0446 49.0268
32.0488 47.4170
32.0530 45.8853
32.0572 44.4357
32.0635 42.3912
32.0698 40.5053
32.0761 38.7666
32.0824 37.1667
32.0887 35.6902
32.0950 34.3296
32.1013 33.0756
32.1076 31.9211
32.1139 30.8541
32.1202 29.8689
32.1265 28.9582
32.1328 28.1169
32.1391 27.3362
32.1453 26.6130
32.1516 25.9401
32.1579 25.3150
32.1672 24.4728
32.1764 23.7115
32.1856 23.0194
32.1949 22.3894
32.2041 21.8127
32.2133 21.2841
32.2226 20.7975
32.2318 20.3481
32.2410 19.9314
32.2503 19.5449
32.2595 19.1849
32.2687 18.8489
32.2872 18.2396
32.3057 17.7022
32.3223 17.2696
32.3389 16.8788
32.3555 16.5239
32.3722 16.2002
32.3888 15.9040
32.4054 15.6319
32.4220 15.3813
32.4386 15.1497
32.4553 14.9353
32.4719 14.7362
32.5051 14.3784
32.5384 14.0668
32.5716 13.7938
32.5929 13.6364
32.6142 13.4913
32.6568 13.2340
32.6995 13.0149
32.7421 12.8283
32.7847 12.6697
32.8273 12.5351
32.8699 12.4222
32.9126 12.3300
32.9564 12.2572
33.0003 12.2082
33.0441 12.1848
33.0879 12.1898
33.1318 12.2273
33.1537 12.2603
33.1756 12.3042
33.1975 12.3604
33.2195 12.4309
33.2414 12.5179
33.2633 12.6246
33.2868 12.7655
33.3103 12.9406
33.3220 13.0440
33.3338 13.1596
33.3455 13.2898
33.3573 13.4364
33.3690 13.6025
33.3808 13.7911
33.3925 14.0066
33.4042 14.2535
33.4160 14.5380
33.4277 14.8668
33.4395 15.2484
33.4512 15.6926
33.4579 15.9768
33.4645 16.2867
33.4712 16.6257
33.4778 16.9955
33.4845 17.4001
33.4911 17.8412
33.4978 18.3235
33.5045 18.8487
33.5111 19.4217
33.5178 20.0444
33.5244 20.7221
33.5311 21.4562
33.5377 22.2523
33.5444 23.1112
33.5510 24.0371
33.5577 25.0326
33.5663 26.4303
33.5749 27.9508
33.5835 29.5977
33.5921 31.3711
33.6008 33.2709
33.6094 35.2878
33.6180 37.4159
33.6266 39.6440
33.6375 42.6022
33.6485 45.6615
33.6704 51.8926
33.6892 57.0595
33.6986 59.4756
33.7080 61.7254
33.7187 64.0546
33.7295 66.0514
33.7403 67.6642
33.7511 68.8495
33.7611 69.5407
33.7711 69.8230
33.7788 69.7585
33.7864 69.4522
33.7941 68.9090
33.8018 68.1375
33.8103 67.0282
33.8196 65.5251
33.8289 63.7550
33.8383 61.7536
33.8476 59.5596
33.8645 55.2234
33.8815 50.6325
33.8961 46.6355
33.9107 42.7411
33.9253 39.0513
33.9326 37.3065
33.9399 35.6413
33.9499 33.4948
33.9599 31.5117
33.9699 29.6963
33.9799 28.0501
33.9899 26.5663
33.9999 25.2403
34.0099 24.0639
34.0199 23.0281
34.0260 22.4544
34.0322 21.9278
34.0383 21.4448
34.0445 21.0029
34.0507 20.5989
34.0568 20.2316
34.0630 19.8980
34.0691 19.5958
34.0753 19.3223
34.0814 19.0764
34.0937 18.6585
34.1060 18.3274
34.1183 18.0717
34.1291 17.9018
34.1399 17.7763
34.1506 17.6908
34.1614 17.6417
34.1722 17.6262
34.1829 17.6421
34.1937 17.6881
34.2045 17.7634
34.2152 17.8681
34.2260 18.0025
34.2368 18.1679
34.2475 18.3657
34.2583 18.5990
34.2691 18.8705
34.2798 19.1852
34.2906 19.5476
34.2990 19.8704
34.3075 20.2306
34.3160 20.6325
34.3244 21.0808
34.3329 21.5810
34.3413 22.1395
34.3498 22.7630
34.3583 23.4593
34.3667 24.2366
34.3752 25.1041
34.3836 26.0714
34.3921 27.1489
34.4006 28.3473
34.4090 29.6775
34.4175 31.1507
34.4259 32.7776
34.4352 34.7401
34.4444 36.9100
34.4536 39.2977
34.4629 41.9107
34.4721 44.7535
34.4813 47.8263
34.4906 51.1247
34.4998 54.6350
34.5136 60.2761
34.5275 66.2803
34.5413 72.5374
34.5551 78.9009
34.5721 86.5697
34.5890 93.7803
34.6013 98.5221
34.6099 101.493
34.6184 104.140
34.6270 106.426
34.6356 108.314
34.6418 109.431
34.6481 110.312
34.6543 110.954
34.6606 111.353
34.6692 111.503
34.6779 111.195
34.6865 110.440
34.6951 109.261
34.7056 107.293
34.7161 104.805
34.7266 101.871
34.7371 98.5771
34.7492 94.4612
34.7613 90.1299
34.7733 85.7154
34.7854 81.3443
34.7947 78.0651
34.8040 74.9296
34.8134 71.9741
34.8227 69.2317
34.8320 66.7270
34.8413 64.4864
34.8506 62.5224
34.8600 60.8458
34.8687 59.5364
34.8748 58.7875
34.8808 58.1649
34.8868 57.6672
34.8929 57.2944
34.8989 57.0460
34.9049 56.9227
34.9110 56.9239
34.9170 57.0496
34.9230 57.3010
34.9291 57.6778
34.9351 58.1818
34.9411 58.8146
34.9472 59.5788
34.9532 60.4775
34.9592 61.5146
34.9652 62.6947
34.9713 64.0258
34.9773 65.5101
34.9833 67.1573
34.9894 68.9759
34.9954 70.9757
35.0014 73.1677
35.0075 75.5637
35.0135 78.1772
35.0195 81.0274
35.0256 84.1207
35.0316 87.4784
35.0376 91.1185
35.0437 95.0602
35.0497 99.3238
35.0557 103.930
35.0617 108.902
35.0672 113.766
35.0727 118.958
35.0782 124.517
35.0837 130.441
35.0892 136.768
35.0947 143.493
35.1001 150.646
35.1056 158.244
35.1111 166.318
35.1166 174.855
35.1221 183.901
35.1276 193.435
35.1330 203.505
35.1385 214.084
35.1440 225.200
35.1495 236.857
35.1536 245.982
35.1577 255.393
35.1618 265.137
35.1659 275.166
35.1701 285.528
35.1742 296.169
35.1783 307.112
35.1824 318.354
35.1884 335.376
35.1945 353.012
35.2005 371.240
35.2065 390.036
35.2126 409.404
35.2186 429.250
35.2246 449.572
35.2306 470.335
35.2367 491.501
35.2427 513.035
35.2487 534.896
35.2548 557.047
35.2604 577.808
35.2659 598.717
35.2715 619.821
35.2771 641.017
35.2859 674.642
35.2947 708.424
35.3027 739.195
35.3107 769.958
35.3187 800.651
35.3267 831.216
35.3395 879.625
35.3523 927.237
35.3634 968.035
35.3746 1007.68
35.3934 1070.69
35.4109 1124.06
35.4197 1147.96
35.4285 1169.59
35.4425 1198.56
35.4565 1219.53
35.4670 1229.19
35.4774 1233.29
35.4878 1231.45
35.4982 1223.43
35.5051 1214.58
35.5120 1202.94
35.5233 1178.11
35.5345 1146.27
35.5458 1107.89
35.5570 1063.62
35.5675 1017.99
35.5779 968.792
35.5883 916.794
35.5988 862.829
35.6152 776.003
35.6316 689.503
35.6469 611.335
35.6545 573.817
35.6622 537.573
35.6698 502.749
35.6775 469.463
35.6851 437.804
35.6928 407.831
35.7013 376.335
35.7099 347.041
35.7184 319.892
35.7270 294.842
35.7355 271.823
35.7441 250.745
35.7484 240.893
35.7526 231.509
35.7569 222.537
35.7612 214.003
35.7675 202.179
35.7737 191.194
35.7800 180.982
35.7863 171.495
35.7925 162.687
35.7988 154.512
35.8051 146.928
35.8114 139.892
35.8176 133.353
35.8239 127.295
35.8302 121.671
35.8364 116.447
35.8427 111.591
35.8490 107.074
35.8553 102.868
35.8615 98.9482
35.8678 95.2855
35.8741 91.8698
35.8803 88.6755
35.8866 85.6842
35.8929 82.8796
35.8992 80.2463
35.9054 77.7707
35.9117 75.4401
35.9180 73.2397
35.9242 71.1659
35.9368 67.3508
35.9493 63.9251
35.9619 60.8339
35.9744 58.0300
35.9870 55.4798
35.9995 53.1494
36.0120 51.0122
36.0246 49.0442
36.0371 47.2296
36.0497 45.5501
36.0622 43.9919
36.0748 42.5417
36.0873 41.1911
36.0998 39.9297
36.1124 38.7495
36.1249 37.6423
36.1375 36.6037
36.1500 35.6271
36.1625 34.7074
36.1751 33.8395
36.1876 33.0208
36.2127 31.5138
36.2378 30.1614
36.2629 28.9436
36.2880 27.8421
36.3131 26.8439
36.3382 25.9361
36.3632 25.1094
36.3838 24.4869
36.4043 23.9090
36.4248 23.3719
36.4453 22.8730
36.4659 22.4092
36.4864 21.9788
36.5069 21.5798
36.5274 21.2107
36.5480 20.8703
36.5685 20.5581
36.5890 20.2737
36.6095 20.0175
36.6301 19.7901
36.6506 19.5931
36.6711 19.4290
36.6916 19.3014
36.7099 19.2232
36.7281 19.1838
36.7500 19.1986
36.7610 19.2366
36.7720 19.2990
36.7829 19.3894
36.7939 19.5118
36.8048 19.6713
36.8158 19.8736
36.8268 20.1256
36.8377 20.4344
36.8487 20.8085
36.8597 21.2570
36.8706 21.7904
36.8816 22.4181
36.8871 22.7708
36.8925 23.1511
36.8980 23.5604
36.9035 24.0000
36.9139 24.9233
36.9243 25.9678
36.9348 27.1393
36.9452 28.4420
36.9556 29.8773
36.9660 31.4436
36.9764 33.1355
36.9869 34.9419
36.9991 37.1932
37.0113 39.5528
37.0357 44.4365
37.0480 46.8587
37.0602 49.1898
37.0724 51.3674
37.0846 53.3288
37.0891 53.9761
37.0996 55.3475
37.1101 56.4659
37.1206 57.3059
37.1311 57.8447
37.1373 58.0170
37.1436 58.0758
37.1538 57.9286
37.1639 57.4843
37.1741 56.7529
37.1842 55.7520
37.1905 55.0109
37.1993 53.8115
37.2082 52.4553
37.2171 50.9640
37.2259 49.3605
37.2437 45.8937
37.2615 42.2611
37.2769 39.1181
37.2923 36.0784
37.3000 34.6201
37.3077 33.2158
37.3154 31.8678
37.3231 30.5844
37.3291 29.6321
37.3351 28.7212
37.3410 27.8522
37.3470 27.0270
37.3530 26.2427
37.3590 25.5018
37.3649 24.8011
37.3709 24.1421
37.3769 23.5218
37.3829 22.9399
37.3889 22.3951
37.3948 21.8869
37.4008 21.4120
37.4068 20.9703
37.4128 20.5587
37.4187 20.1771
37.4281 19.6345
37.4374 19.1532
37.4467 18.7271
37.4561 18.3510
37.4654 18.0188
37.4748 17.7262
37.4841 17.4688
37.4934 17.2429
37.5028 17.0445
37.5121 16.8708
37.5214 16.7192
37.5308 16.5873
37.5494 16.3751
37.5681 16.2215
37.5811 16.1449
37.5940 16.0906
37.6070 16.0574
37.6199 16.0446
37.6329 16.0522
37.6458 16.0806
37.6588 16.1309
37.6717 16.2044
37.6847 16.3030
37.6976 16.4291
37.7106 16.5851
37.7235 16.7741
37.7365 16.9992
37.7494 17.2633
37.7624 17.5694
37.7753 17.9196
37.7882 18.3160
37.8012 18.7593
37.8141 19.2492
37.8271 19.7834
37.8400 20.3594
37.8529 20.9718
37.8788 22.2770
37.9059 23.6963
37.9330 25.0831
37.9589 26.3115
37.9890 27.6044
38.0104 28.4733
38.0238 29.0329
38.0372 29.6361
38.0506 30.3185
38.0640 31.1222
38.0732 31.7674
38.0823 32.5090
38.0920 33.4194
38.1017 34.4824
38.1113 35.7243
38.1210 37.1720
38.1307 38.8550
38.1355 39.7932
38.1404 40.7984
38.1452 41.8784
38.1500 43.0323
38.1549 44.2683
38.1597 45.5848
38.1677 47.9597
38.1757 50.5861
38.1837 53.4767
38.1917 56.6429
38.1998 60.0935
38.2078 63.8349
38.2158 67.8700
38.2238 72.1928
38.2303 75.9408
38.2368 79.8702
38.2434 83.9862
38.2499 88.2669
38.2630 97.2994
38.2761 106.846
38.2879 115.842
38.2998 124.977
38.3117 134.090
38.3236 142.997
38.3378 153.145
38.3521 162.383
38.3600 166.987
38.3679 171.166
38.3758 174.878
38.3837 178.082
38.3907 180.509
38.3978 182.490
38.4049 184.012
38.4120 185.072
38.4246 185.830
38.4372 185.202
38.4460 184.011
38.4547 182.271
38.4635 180.053
38.4723 177.441
38.4870 172.415
38.5018 167.043
38.5153 162.281
38.5288 158.121
38.5356 156.401
38.5424 154.995
38.5491 153.951
38.5559 153.319
38.5620 153.142
38.5682 153.377
38.5743 154.056
38.5805 155.208
38.5873 157.054
38.5940 159.537
38.6008 162.682
38.6076 166.507
38.6143 171.039
38.6211 176.275
38.6279 182.237
38.6346 188.906
38.6414 196.293
38.6482 204.361
38.6549 213.113
38.6617 222.492
38.6685 232.489
38.6752 243.029
38.6820 254.089
38.6887 265.575
38.6986 282.943
38.7090 302.004
38.7195 321.347
38.7300 340.656
38.7404 359.519
38.7539 382.674
38.7675 403.622
38.7780 417.893
38.7885 429.982
38.7962 437.206
38.8038 443.032
38.8114 447.397
38.8190 450.228
38.8286 451.561
38.8382 450.361
38.8478 446.648
38.8573 440.581
38.8668 432.251
38.8762 421.795
38.8857 409.425
38.8938 397.469
38.9019 384.433
38.9100 370.465
38.9181 355.732
38.9262 340.401
38.9343 324.641
38.9505 292.476
38.9638 266.196
38.9770 240.594
38.9903 216.104
38.9969 204.402
39.0035 193.126
39.0116 179.928
39.0197 167.424
39.0278 155.639
39.0359 144.589
39.0440 134.274
39.0521 124.689
39.0602 115.817
39.0683 107.636
39.0735 102.772
39.0786 98.1773
39.0838 93.8261
39.0890 89.7258
39.0941 85.8509
39.0993 82.2066
39.1044 78.7690
39.1096 75.5414
39.1147 72.5014
39.1199 69.6508
39.1250 66.9690
39.1302 64.4569
39.1354 62.0954
39.1405 59.8847
39.1457 57.8076
39.1508 55.8639
39.1589 53.0458
39.1670 50.5023
39.1751 48.2030
39.1832 46.1233
39.1913 44.2410
39.1994 42.5360
39.2075 40.9903
39.2156 39.5879
39.2237 38.3145
39.2318 37.1575
39.2399 36.1060
39.2480 35.1503
39.2561 34.2821
39.2642 33.4943
39.2723 32.7807
39.2804 32.1364
39.2937 31.2204
39.3069 30.4654
39.3202 29.8629
39.3335 29.4096
39.3467 29.1057
39.3600 28.9565
39.3666 28.9423
39.3732 28.9704
39.3799 29.0423
39.3865 29.1596
39.3935 29.3353
39.4005 29.5666
39.4075 29.8561
39.4145 30.2062
39.4215 30.6205
39.4285 31.1010
39.4355 31.6516
39.4424 32.2736
39.4494 32.9712
39.4564 33.7460
39.4634 34.5999
39.4704 35.5331
39.4774 36.5491
39.4844 37.6455
39.4914 38.8251
39.4984 40.0835
39.5065 41.6397
39.5146 43.2966
39.5227 45.0477
39.5308 46.8846
39.5470 50.7722
39.5632 54.8523
39.5824 59.7340
39.6015 64.4219
39.6133 67.0816
39.6251 69.4866
39.6354 71.3321
39.6457 72.8906
39.6560 74.1268
39.6663 75.0109
39.6761 75.5041
39.6858 75.6546
39.6964 75.4257
39.7069 74.7939
39.7174 73.7717
39.7280 72.3838
39.7364 71.0271
39.7449 69.4739
39.7533 67.7456
39.7618 65.8680
39.7783 61.8424
39.7949 57.5222
39.8235 49.9042
39.8378 46.2401
39.8520 42.7838
39.8618 40.5703
39.8716 38.4979
39.8814 36.5772
39.8912 34.8172
39.9009 33.2182
39.9107 31.7845
39.9205 30.5118
39.9303 29.3994
39.9378 28.6472
39.9453 27.9845
39.9528 27.4068
39.9603 26.9106
39.9679 26.4918
39.9754 26.1473
39.9829 25.8725
39.9904 25.6631
40.0002 25.4815
40.0100 25.3934
40.0198 25.3886
40.0296 25.4569
40.0393 25.5878
40.0491 25.7706
40.0687 26.2483
40.0942 26.9761
40.1198 27.6477
40.1357 27.9631
40.1454 28.0988
40.1551 28.1846
40.1648 28.2163
40.1745 28.1909
40.1842 28.1065
40.1939 27.9632
40.2036 27.7622
40.2134 27.5062
40.2247 27.1416
40.2361 26.7153
40.2475 26.2366
40.2588 25.7166
40.2914 24.1020
40.3077 23.2855
40.3239 22.5019
40.3443 21.6033
40.3544 21.1972
40.3646 20.8242
40.3748 20.4853
40.3849 20.1818
40.3951 19.9141
40.4053 19.6821
40.4165 19.4667
40.4276 19.2920
40.4388 19.1557
40.4500 19.0559
40.4612 18.9902
40.4724 18.9564
40.4836 18.9523
40.4947 18.9760
40.5171 19.0993
40.5395 19.3145
40.5619 19.6138
40.5842 19.9931
40.6061 20.4401
40.6279 20.9655
40.6497 21.5744
40.6715 22.2743
40.6934 23.0766
40.7152 23.9941
40.7370 25.0453
40.7479 25.6273
40.7588 26.2514
40.7782 27.4722
40.7975 28.8617
40.8072 29.6297
40.8168 30.4515
40.8265 31.3330
40.8361 32.2804
40.8458 33.3015
40.8555 34.4020
40.8651 35.5932
40.8748 36.8831
40.8845 38.2861
40.8941 39.8132
40.9038 41.4817
40.9135 43.3099
40.9210 44.8638
40.9286 46.5400
40.9361 48.3514
40.9437 50.3128
40.9512 52.4404
40.9588 54.7526
40.9663 57.2697
40.9739 60.0144
40.9814 63.0118
40.9890 66.2899
40.9965 69.8793
41.0041 73.8136
41.0116 78.1297
41.0192 82.8676
41.0267 88.0706
41.0342 93.7774
41.0387 97.3966
41.0431 101.221
41.0476 105.260
41.0520 109.527
41.0564 114.032
41.0609 118.788
41.0653 123.807
41.0698 129.089
41.0746 135.252
41.0795 141.767
41.0844 148.678
41.0893 155.973
41.0942 163.699
41.0991 171.841
41.1040 180.448
41.1088 189.501
41.1137 199.052
41.1186 209.076
41.1235 219.627
41.1284 230.674
41.1333 242.273
41.1381 254.385
41.1430 267.068
41.1479 280.274
41.1532 295.330
41.1586 311.045
41.1639 327.419
41.1692 344.445
41.1746 362.112
41.1799 380.406
41.1852 399.309
41.1905 418.758
41.2003 455.895
41.2101 494.676
41.2199 534.826
41.2296 576.011
41.2394 617.846
41.2492 659.895
41.2687 742.649
41.2783 781.514
41.2878 818.614
41.2974 853.437
41.3069 885.487
41.3176 917.351
41.3282 944.573
41.3389 966.672
41.3495 983.228
41.3535 987.951
41.3575 991.834
41.3680 997.956
41.3784 998.173
41.3889 992.521
41.3994 981.142
41.4064 970.451
41.4133 957.429
41.4261 928.124
41.4388 892.354
41.4491 859.159
41.4595 822.916
41.4698 784.234
41.4801 743.770
41.4918 696.751
41.5034 649.022
41.5267 554.480
41.5386 507.811
41.5505 463.149
41.5625 420.849
41.5744 381.304
41.5814 359.286
41.5885 338.353
41.5955 318.463
41.6026 299.678
41.6096 281.944
41.6166 265.299
41.6237 249.678
41.6307 235.100
41.6367 223.515
41.6427 212.639
41.6486 202.428
41.6546 192.858
41.6606 183.887
41.6665 175.520
41.6725 167.711
41.6784 160.434
41.6844 153.648
41.6904 147.348
41.6963 141.493
41.7023 136.055
41.7082 131.007
41.7142 126.322
41.7202 121.974
41.7261 117.937
41.7348 112.572
41.7425 108.256
41.7502 104.322
41.7579 100.719
41.7656 97.4160
41.7733 94.3670
41.7810 91.5468
41.7887 88.9211
41.7964 86.4629
41.8094 82.6411
41.8231 78.9245
41.8368 75.4725
41.8506 72.2182
41.8643 69.1186
41.8896 63.7385
41.9149 58.7582
41.9270 56.5333
41.9390 54.4198
41.9511 52.4233
41.9631 50.5564
41.9752 48.8243
41.9873 47.2369
41.9993 45.7973
42.0114 44.5123
42.0206 43.6373
42.0298 42.8554
42.0390 42.1659
42.0482 41.5716
42.0574 41.0721
42.0666 40.6703
42.0758 40.3674
42.0850 40.1663
42.0924 40.0801
42.0999 40.0661
42.1074 40.1269
42.1148 40.2660
42.1223 40.4876
42.1298 40.7964
42.1373 41.1980
42.1447 41.6987
42.1522 42.3056
42.1597 43.0268
42.1671 43.8711
42.1746 44.8483
42.1821 45.9690
42.1895 47.2447
42.1970 48.6876
42.2045 50.3108
42.2108 51.8350
42.2171 53.5065
42.2234 55.3341
42.2298 57.3266
42.2361 59.4928
42.2424 61.8415
42.2487 64.3813
42.2550 67.1204
42.2614 70.0665
42.2677 73.2268
42.2740 76.6075
42.2803 80.2140
42.2866 84.0507
42.2930 88.1203
42.2993 92.4243
42.3056 96.9625
42.3119 101.741
42.3183 106.739
42.3309 117.394
42.3435 128.868
42.3562 141.026
42.3688 153.723
42.3815 166.768
42.3941 179.934
42.4067 192.969
42.4228 208.944
42.4355 220.666
42.4481 231.368
42.4583 239.107
42.4686 245.909
42.4812 252.906
42.4939 258.188
42.5034 260.986
42.5113 262.552
42.5193 263.426
42.5272 263.628
42.5351 263.185
42.5453 261.712
42.5556 259.310
42.5658 256.087
42.5760 252.164
42.5881 246.802
42.6002 240.843
42.6122 234.472
42.6243 227.871
42.6462 215.719
42.6704 202.699
42.6945 190.303
42.6978 188.666
42.7092 183.006
42.7206 177.400
42.7434 166.163
42.7467 164.539
42.7597 157.963
42.7728 151.228
42.7931 140.323
42.8135 129.018
42.8458 110.745
42.8605 102.561
42.8752 94.6341
42.8899 87.0763
42.9045 80.0063
42.9126 76.3546
42.9207 72.8892
42.9288 69.6205
42.9368 66.5603
42.9449 63.7070
42.9530 61.0719
42.9611 58.6504
42.9691 56.4489
42.9787 54.1219
42.9882 52.0936
42.9978 50.3523
43.0073 48.8917
43.0169 47.6969
43.0264 46.7567
43.0360 46.0546
43.0455 45.5738
43.0536 45.3266
43.0617 45.2140
43.0697 45.2239
43.0778 45.3436
43.0859 45.5604
43.0940 45.8609
43.1101 46.6572
43.1321 47.9899
43.1542 49.3479
43.1660 49.9934
43.1778 50.5301
43.1888 50.9007
43.1997 51.1278
43.2107 51.1939
43.2216 51.0865
43.2247 51.0229
43.2357 50.6812
43.2466 50.1560
43.2576 49.4518
43.2685 48.5783
43.2838 47.1068
43.2991 45.3845
43.3119 43.7874
43.3246 42.0932
43.3502 38.5604
43.3697 35.8868
43.3892 33.3439
43.3989 32.1471
43.4087 31.0101
43.4184 29.9382
43.4282 28.9353
43.4373 28.0552
43.4465 27.2389
43.4557 26.4861
43.4649 25.7966
43.4740 25.1669
43.4832 24.5956
43.4924 24.0799
43.5016 23.6172
43.5108 23.2034
43.5199 22.8355
43.5291 22.5105
43.5383 22.2252
43.5475 21.9760
43.5566 21.7606
43.5658 21.5756
43.5750 21.4190
43.5900 21.2178
43.6049 21.0771
43.6199 20.9898
43.6349 20.9502
43.6499 20.9542
43.6648 20.9988
43.6798 21.0821
43.6948 21.2030
43.7098 21.3618
43.7247 21.5587
43.7397 21.7955
43.7547 22.0743
43.7696 22.3984
43.7846 22.7713
43.7996 23.1982
43.8146 23.6852
43.8329 24.3734
43.8512 25.1803
43.8603 25.6351
43.8695 26.1287
43.8786 26.6649
43.8878 27.2482
43.8969 27.8838
43.9061 28.5776
43.9152 29.3365
43.9244 30.1682
43.9335 31.0816
43.9427 32.0872
43.9518 33.1966
43.9610 34.4232
43.9684 35.5254
43.9759 36.7258
43.9834 38.0349
43.9909 39.4624
43.9984 41.0247
44.0059 42.7341
44.0134 44.6057
44.0209 46.6533
44.0283 48.9003
44.0358 51.3634
44.0433 54.0634
44.0508 57.0181
44.0583 60.2587
44.0658 63.8009
44.0733 67.6795
44.0807 71.9102
44.0853 74.6882
44.0899 77.6096
44.0945 80.6932
44.0990 83.9317
44.1036 87.3452
44.1082 90.9246
44.1128 94.6913
44.1173 98.6343
44.1265 107.104
44.1356 116.371
44.1448 126.467
44.1539 137.414
44.1623 148.117
44.1706 159.535
44.1789 171.657
44.1872 184.447
44.1939 195.170
44.2005 206.272
44.2072 217.758
44.2138 229.563
44.2205 241.681
44.2271 254.034
44.2405 279.313
44.2496 296.945
44.2588 314.555
44.2771 349.028
44.2862 365.497
44.2954 381.184
44.3045 395.887
44.3137 409.397
44.3229 421.658
44.3321 432.358
44.3413 441.344
44.3506 448.492
44.3623 454.786
44.3741 457.807
44.3808 458.049
44.3875 457.226
44.3976 454.031
44.4076 448.576
44.4177 441.005
44.4277 431.502
44.4278 431.399
44.4282 430.993
44.4286 430.585
44.4294 429.762
44.4309 428.096
44.4340 424.636
44.4402 417.291
44.4527 401.072
44.4612 388.948
44.4698 376.249
44.4868 349.878
44.4981 332.408
44.5093 315.265
44.5205 298.800
44.5317 283.335
44.5438 268.024
44.5560 254.430
44.5620 248.339
44.5681 242.742
44.5741 237.650
44.5802 233.071
44.5912 226.059
44.6022 220.720
44.6083 218.474
44.6144 216.696
44.6204 215.366
44.6265 214.460
44.6386 213.808
44.6507 214.492
44.6606 215.851
44.6705 217.748
44.6804 220.017
44.6903 222.478
44.6998 224.848
44.7171 228.792
44.7345 231.517
44.7432 232.211
44.7519 232.358
44.7606 231.905
44.7693 230.811
44.7764 229.423
44.7835 227.580
44.7907 225.282
44.7978 222.538
44.8061 218.790
44.8143 214.472
44.8226 209.619
44.8309 204.273
44.8460 193.412
44.8611 181.413
44.8817 163.894
44.9023 145.896
44.9199 130.824
44.9287 123.534
44.9374 116.471
44.9462 109.673
44.9550 103.171
44.9638 96.9894
44.9726 91.1459
44.9782 87.5511
44.9839 84.1044
44.9896 80.8064
44.9953 77.6570
45.0010 74.6554
45.0066 71.7999
45.0123 69.0883
45.0180 66.5221
45.0237 64.0888
45.0293 61.7895
45.0350 59.6198
45.0407 57.5790
45.0464 55.6551
45.0521 53.8471
45.0577 52.1500
45.0634 50.5616
45.0706 48.7015
45.0777 46.9914
45.0849 45.4218
45.0920 43.9831
45.0992 42.6663
45.1063 41.4626
45.1135 40.3638
45.1206 39.3621
45.1278 38.4503
45.1349 37.6215
45.1421 36.8697
45.1492 36.1890
45.1564 35.5743
45.1635 35.0208
45.1707 34.5244
45.1778 34.0813
45.1856 33.6547
45.1934 33.2839
45.2012 32.9656
45.2090 32.6972
45.2168 32.4766
45.2246 32.3021
45.2402 32.0877
45.2558 32.0507
45.2636 32.0997
45.2714 32.1953
45.2792 32.3392
45.2870 32.5337
45.2948 32.7817
45.3026 33.0866
45.3104 33.4526
45.3182 33.8845
45.3260 34.3877
45.3338 34.9686
45.3416 35.6344
45.3494 36.3930
45.3572 37.2533
45.3650 38.2252
45.3722 39.2236
45.3793 40.3340
45.3865 41.5664
45.3936 42.9313
45.4008 44.4399
45.4079 46.1043
45.4151 47.9368
45.4222 49.9505
45.4294 52.1590
45.4365 54.5760
45.4437 57.2156
45.4508 60.0916
45.4580 63.2180
45.4651 66.6082
45.4723 70.2749
45.4794 74.2300
45.4872 78.8861
45.4950 83.9100
45.5028 89.3106
45.5106 95.0941
45.5184 101.263
45.5262 107.814
45.5340 114.743
45.5418 122.036
45.5490 129.027
45.5561 136.292
45.5633 143.810
45.5704 151.554
45.5776 159.493
45.5847 167.592
45.5919 175.812
45.5990 184.110
45.6075 193.950
45.6159 203.748
45.6244 213.415
45.6328 222.857
45.6471 238.052
45.6614 251.859
45.6732 261.871
45.6850 270.403
45.6953 276.514
45.7056 281.219
45.7168 284.614
45.7279 286.214
45.7351 286.279
45.7423 285.590
45.7494 284.156
45.7566 281.997
45.7663 277.983
45.7759 272.775
45.7856 266.470
45.7952 259.191
45.8064 249.666
45.8177 239.216
45.8289 228.049
45.8401 216.414
45.8513 204.518
45.8625 192.598
45.8737 180.833
45.8849 169.427
45.8931 161.435
45.9013 153.767
45.9094 146.470
45.9176 139.594
45.9257 133.157
45.9339 127.205
45.9420 121.747
45.9502 116.817
45.9573 112.938
45.9645 109.480
45.9716 106.451
45.9787 103.859
45.9859 101.704
45.9930 99.9961
46.0002 98.7365
46.0073 97.9342
46.0129 97.6267
46.0185 97.6080
46.0241 97.8815
46.0297 98.4500
46.0353 99.3198
46.0409 100.495
46.0465 101.980
46.0521 103.778
46.0578 105.901
46.0634 108.351
46.0690 111.135
46.0746 114.255
46.0802 117.727
46.0858 121.553
46.0914 125.739
46.0970 130.282
46.1062 138.535
46.1154 147.795
46.1245 158.095
46.1337 169.422
46.1429 181.795
46.1521 195.171
46.1612 209.550
46.1704 224.853
46.1816 244.759
46.1928 265.814
46.2041 287.817
46.2153 310.499
46.2265 333.610
46.2377 356.779
46.2601 401.896
46.2754 430.380
46.2831 443.560
46.2907 455.842
46.2983 467.111
46.3060 477.271
46.3136 486.221
46.3212 493.869
46.3297 500.736
46.3382 505.811
46.3466 509.027
46.3551 510.342
46.3619 510.015
46.3687 508.464
46.3788 503.870
46.3890 496.645
46.3991 486.924
46.4093 474.886
46.4191 461.356
46.4288 446.129
46.4385 429.431
46.4483 411.513
46.4580 392.634
46.4678 373.055
46.4872 332.822
46.5085 289.055
46.5191 267.843
46.5297 247.385
46.5395 229.410
46.5492 212.291
46.5589 196.104
46.5687 180.914
46.5784 166.720
46.5882 153.548
46.5979 141.389
46.6028 135.684
46.6076 130.234
46.6125 125.011
46.6174 120.023
46.6222 115.264
46.6271 110.727
46.6320 106.407
46.6368 102.295
46.6417 98.3852
46.6466 94.6704
46.6515 91.1430
46.6563 87.7958
46.6612 84.6211
46.6661 81.6116
46.6709 78.7598
46.6758 76.0586
46.6807 73.5008
46.6855 71.0792
46.6940 67.1941
46.7024 63.6661
46.7108 60.4583
46.7192 57.5409
46.7276 54.8860
46.7360 52.4678
46.7444 50.2630
46.7528 48.2499
46.7612 46.4091
46.7697 44.7230
46.7781 43.1759
46.7865 41.7535
46.7949 40.4431
46.8033 39.2336
46.8117 38.1148
46.8201 37.0779
46.8298 35.9712
46.8396 34.9528
46.8493 34.0135
46.8590 33.1453
46.8687 32.3414
46.8784 31.5959
46.8882 30.9037
46.8979 30.2612
46.9076 29.6633
46.9173 29.1078
46.9270 28.5918
46.9367 28.1139
46.9465 27.6713
46.9562 27.2631
46.9659 26.8881
46.9756 26.5461
46.9921 26.0378
47.0086 25.6206
47.0251 25.2935
47.0416 25.0572
47.0581 24.9113
47.0746 24.8549
47.0911 24.8853
47.1076 24.9970
47.1274 25.2267
47.1471 25.5399
47.1867 26.2937
47.2109 26.7308
47.2230 26.9126
47.2351 27.0572
47.2395 27.0988
47.2520 27.1812
47.2645 27.2042
47.2770 27.1621
47.2895 27.0510
47.3020 26.8695
47.3145 26.6183
47.3269 26.2996
47.3394 25.9188
47.3486 25.6012
47.3586 25.2261
47.3686 24.8237
47.3885 23.9544
47.4223 22.3850
47.4392 21.6022
47.4560 20.8463
47.4752 20.0382
47.4848 19.6594
47.4944 19.2991
47.5040 18.9580
47.5136 18.6367
47.5232 18.3350
47.5328 18.0530
47.5424 17.7901
47.5520 17.5457
47.5615 17.3189
47.5711 17.1088
47.5807 16.9145
47.5903 16.7348
47.5999 16.5687
47.6095 16.4150
47.6195 16.2672
47.6294 16.1308
47.6494 15.8872
47.6693 15.6766
47.6893 15.4925
47.7092 15.3297
47.7292 15.1843
47.7491 15.0529
47.7691 14.9333
47.7890 14.8237
47.8090 14.7227
47.8489 14.5428
47.8888 14.3884
47.9287 14.2570
47.9532 14.1870
47.9778 14.1255
48.0023 14.0726
48.0269 14.0289
48.0594 13.9867
48.0919 13.9652
48.1082 13.9637
48.1245 13.9695
48.1407 13.9839
48.1570 14.0083
48.1733 14.0446
48.1895 14.0954
48.2058 14.1639
48.2220 14.2540
48.2383 14.3710
48.2464 14.4414
48.2546 14.5209
48.2627 14.6105
48.2708 14.7113
48.2790 14.8245
48.2871 14.9513
48.2946 15.0816
48.3021 15.2256
48.3096 15.3846
48.3171 15.5598
48.3246 15.7526
48.3320 15.9642
48.3395 16.1961
48.3470 16.4494
48.3545 16.7259
48.3620 17.0261
48.3695 17.3516
48.3770 17.7036
48.3845 18.0830
48.3920 18.4907
48.3995 18.9273
48.4070 19.3935
48.4151 19.9365
48.4233 20.5141
48.4315 21.1273
48.4397 21.7735
48.4478 22.4529
48.4560 23.1617
48.4723 24.6587
48.4873 26.1044
48.5023 27.5889
48.5173 29.0794
48.5323 30.5343
48.5473 31.9115
48.5622 33.1673
48.5703 33.7739
48.5783 34.3273
48.5863 34.8217
48.5943 35.2519
48.6040 35.6817
48.6137 36.0031
48.6235 36.2112
48.6332 36.3027
48.6437 36.2690
48.6543 36.0987
48.6648 35.7955
48.6753 35.3659
48.6829 34.9827
48.6905 34.5423
48.7054 33.5204
48.7204 32.3315
48.7320 31.3244
48.7436 30.2635
48.7667 28.0571
48.7817 26.6249
48.7967 25.2312
48.8117 23.9047
48.8266 22.6674
48.8403 21.6334
48.8471 21.1514
48.8539 20.6936
48.8607 20.2603
48.8675 19.8517
48.8743 19.4678
48.8811 19.1088
48.8879 18.7733
48.8947 18.4615
48.9015 18.1728
48.9083 17.9069
48.9151 17.6624
48.9220 17.4387
48.9288 17.2353
48.9356 17.0515
48.9437 16.8551
48.9519 16.6841
48.9601 16.5371
48.9682 16.4129
48.9757 16.3181
48.9832 16.2407
48.9907 16.1800
48.9982 16.1353
49.0057 16.1060
49.0132 16.0919
49.0207 16.0925
49.0282 16.1076
49.0357 16.1372
49.0431 16.1812
49.0506 16.2398
49.0581 16.3132
49.0656 16.4018
49.0731 16.5062
49.0806 16.6268
49.0881 16.7644
49.0956 16.9198
49.1031 17.0940
49.1106 17.2880
49.1180 17.5029
49.1255 17.7399
49.1330 18.0005
49.1405 18.2860
49.1480 18.5974
49.1555 18.9372
49.1630 19.3065
49.1705 19.7070
49.1780 20.1404
49.1854 20.6083
49.1929 21.1126
49.2004 21.6548
49.2079 22.2360
49.2181 23.0971
49.2283 24.0385
49.2386 25.0660
49.2488 26.1817
49.2590 27.3917
49.2692 28.6972
49.2794 30.1035
49.2896 31.6146
49.2971 32.7923
49.3046 34.0305
49.3121 35.3314
49.3196 36.6973
49.3271 38.1305
49.3346 39.6341
49.3420 41.2109
49.3495 42.8647
49.3585 44.9469
49.3674 47.1515
49.3764 49.4865
49.3853 51.9604
49.3885 52.8572
49.3994 56.1496
49.4103 59.6857
49.4213 63.4828
49.4322 67.5532
49.4353 68.7718
49.4424 71.5972
49.4494 74.5470
49.4635 80.8258
49.4721 84.9551
49.4808 89.2688
49.4981 98.4316
49.5153 108.087
49.5324 118.178
49.5495 128.483
49.5667 138.673
49.5854 149.254
49.5941 153.838
49.6028 158.138
49.6115 162.103
49.6202 165.678
49.6295 169.041
49.6389 171.852
49.6482 174.063
49.6576 175.637
49.6674 176.575
49.6773 176.749
49.6847 176.371
49.6921 175.559
49.6995 174.318
49.7069 172.659
49.7179 169.434
49.7290 165.366
49.7400 160.531
49.7510 155.020
49.7626 148.599
49.7742 141.672
49.7858 134.360
49.7974 126.806
49.8206 111.450
49.8323 103.878
49.8439 96.5209
49.8576 88.2019
49.8644 84.2316
49.8713 80.4032
49.8782 76.7262
49.8850 73.2086
49.8919 69.8565
49.8987 66.6790
49.9045 64.1192
49.9103 61.6890
49.9161 59.3843
49.9219 57.2051
49.9277 55.1473
49.9335 53.2168
49.9393 51.4085
49.9451 49.7205
49.9510 48.1477
49.9568 46.6932
49.9626 45.3512
49.9684 44.1188
49.9742 42.9908
49.9800 41.9678
49.9858 41.0442
49.9916 40.2166
50.0000 39.1760
50.0048 38.6630
50.0097 38.2092
50.0145 37.8112
50.0193 37.4670
50.0290 36.9303
50.0387 36.5826
50.0463 36.4298
50.0539 36.3739
50.0614 36.4060
50.0690 36.5175
50.0766 36.6997
50.0842 36.9436
50.0994 37.5813
50.1229 38.8200
50.1463 40.1384
50.1574 40.7160
50.1684 41.2336
50.1786 41.6391
50.1888 41.9604
50.1989 42.1854
50.2091 42.3031
50.2188 42.3079
50.2285 42.2027
50.2391 41.9606
50.2496 41.5854
50.2601 41.0791
50.2707 40.4482
50.2804 39.7624
50.2903 38.9736
50.3001 38.1007
50.3100 37.1549
50.3198 36.1484
50.3396 34.0044
50.3593 31.7693
50.3754 29.9393
50.3915 28.1583
50.4077 26.4639
50.4157 25.6581
50.4238 24.8851
50.4336 23.9855
50.4435 23.1392
50.4534 22.3478
50.4632 21.6126
50.4731 20.9315
50.4829 20.3041
50.4928 19.7283
50.5026 19.2022
50.5088 18.8954
50.5150 18.6059
50.5212 18.3331
50.5274 18.0759
50.5362 17.7357
50.5450 17.4230
50.5576 17.0182
50.5617 16.8963
50.5700 16.6630
50.5783 16.4461
50.5908 16.1476
50.6021 15.8992
50.6135 15.6705
50.6292 15.3821
50.6448 15.1187
50.6655 14.8009
50.6861 14.5108
50.7040 14.2786
50.7219 14.0626
50.7398 13.8622
50.7577 13.6775
50.7756 13.5084
50.7935 13.3550
50.8114 13.2171
50.8293 13.0946
50.8458 12.9946
50.8623 12.9068
50.8789 12.8308
50.8954 12.7662
50.9119 12.7128
50.9284 12.6705
50.9449 12.6397
50.9615 12.6208
50.9725 12.6153
50.9835 12.6161
50.9945 12.6235
51.0055 12.6384
51.0165 12.6615
51.0275 12.6937
51.0385 12.7362
51.0496 12.7900
51.0606 12.8568
51.0716 12.9378
51.0826 13.0348
51.0936 13.1496
51.1046 13.2841
51.1156 13.4399
51.1266 13.6191
51.1377 13.8234
51.1459 13.9942
51.1542 14.1807
51.1624 14.3833
51.1707 14.6027
51.1790 14.8389
51.1872 15.0921
51.1955 15.3622
51.2037 15.6490
51.2147 16.0562
51.2299 16.6596
51.2450 17.3054
51.2753 18.6802
51.3028 19.9394
51.3180 20.5937
51.3331 21.1942
51.3486 21.7329
51.3564 21.9669
51.3641 22.1744
51.3743 22.4026
51.3844 22.5782
51.3946 22.6984
51.4047 22.7610
51.4078 22.7686
51.4180 22.7550
51.4281 22.6830
51.4383 22.5543
51.4484 22.3715
51.4608 22.0809
51.4731 21.7229
51.4837 21.3709
51.4942 20.9834
51.5153 20.1280
51.5344 19.2958
51.5574 18.2892
51.5679 17.8407
51.5785 17.4085
51.5890 16.9962
51.5995 16.6086
51.6101 16.2484
51.6206 15.9188
51.6311 15.6218
51.6417 15.3589
51.6532 15.1124
51.6589 15.0052
51.6647 14.9091
51.6704 14.8237
51.6761 14.7496
51.6819 14.6864
51.6876 14.6343
51.6948 14.5848
51.7020 14.5526
51.7092 14.5377
51.7164 14.5400
51.7236 14.5596
51.7307 14.5963
51.7379 14.6499
51.7451 14.7205
51.7523 14.8079
51.7595 14.9119
51.7666 15.0322
51.7738 15.1686
51.7810 15.3211
51.7882 15.4889
51.7954 15.6717
51.8026 15.8690
51.8121 16.1539
51.8217 16.4619
51.8313 16.7912
51.8409 17.1389
51.8600 17.8805
51.8792 18.6619
51.9002 19.5325
51.9213 20.3723
51.9328 20.8022
51.9443 21.2033
51.9549 21.5444
51.9656 21.8516
51.9762 22.1216
51.9869 22.3521
51.9963 22.5229
52.0058 22.6613
52.0175 22.7888
52.0292 22.8714
52.0408 22.9143
52.0525 22.9245
52.0670 22.9056
52.0843 22.8650
52.1016 22.8465
52.1158 22.8833
52.1299 23.0000
52.1370 23.0987
52.1441 23.2301
52.1512 23.3988
52.1582 23.6093
52.1669 23.9305
52.1756 24.3300
52.1842 24.8166
52.1929 25.3983
52.2015 26.0853
52.2102 26.8844
52.2188 27.8058
52.2275 28.8554
52.2361 30.0430
52.2448 31.3742
52.2535 32.8549
52.2621 34.4880
52.2708 36.2809
52.2794 38.2317
52.2881 40.3455
52.2967 42.6160
52.3050 44.9326
52.3133 47.3837
52.3215 49.9653
52.3298 52.6685
52.3463 58.3973
52.3628 64.4489
52.3801 70.9781
52.3975 77.4969
52.4148 83.7761
52.4234 86.7471
52.4321 89.5608
52.4415 92.4200
52.4501 94.7855
52.4586 96.9111
52.4671 98.7775
52.4757 100.359
52.4835 101.547
52.4914 102.469
52.4992 103.114
52.5071 103.475
52.5108 103.547
52.5202 103.437
52.5297 102.914
52.5391 101.988
52.5485 100.670
52.5517 100.147
52.5606 98.4534
52.5695 96.4593
52.5784 94.1899
52.5872 91.6761
52.6037 86.4773
52.6201 80.7403
52.6395 73.5634
52.6588 66.2540
52.6765 59.7287
52.6853 56.5696
52.6941 53.5079
52.7029 50.5521
52.7117 47.7181
52.7205 45.0159
52.7293 42.4556
52.7382 40.0201
52.7470 37.7330
52.7559 35.5949
52.7648 33.6067
52.7736 31.7608
52.7825 30.0555
52.7914 28.4854
52.8002 27.0459
52.8071 26.0153
52.8140 25.0559
52.8208 24.1626
52.8277 23.3318
52.8345 22.5590
52.8414 21.8430
52.8482 21.1790
52.8551 20.5638
52.8619 19.9932
52.8688 19.4657
52.8756 18.9775
52.8825 18.5256
52.8893 18.1073
52.8962 17.7200
52.9030 17.3613
52.9099 17.0289
52.9187 16.6341
52.9276 16.2755
52.9365 15.9494
52.9453 15.6525
52.9542 15.3812
52.9631 15.1330
52.9720 14.9053
52.9808 14.6964
52.9897 14.5036
52.9986 14.3256
53.0074 14.1609
53.0163 14.0082
53.0252 13.8660
53.0340 13.7337
53.0429 13.6099
53.0517 13.4943
53.0663 13.3201
53.0808 13.1627
53.0953 13.0197
53.1098 12.8895
53.1243 12.7703
53.1388 12.6611
53.1533 12.5607
53.1678 12.4682
53.1823 12.3828
53.1968 12.3040
53.2114 12.2310
53.2259 12.1635
53.2549 12.0430
53.2839 11.9397
53.3032 11.8793
53.3226 11.8251
53.3419 11.7767
53.3613 11.7337
53.3806 11.6959
53.4000 11.6630
53.4193 11.6349
53.4387 11.6115
53.4741 11.5805
53.4919 11.5709
53.5096 11.5652
53.5273 11.5635
53.5451 11.5661
53.5628 11.5730
53.5805 11.5845
53.5983 11.6009
53.6160 11.6226
53.6338 11.6498
53.6515 11.6833
53.6692 11.7234
53.6870 11.7711
53.7047 11.8271
53.7224 11.8924
53.7434 11.9836
53.7643 12.0924
53.7748 12.1544
53.7853 12.2222
53.7958 12.2964
53.8063 12.3776
53.8167 12.4666
53.8272 12.5644
53.8377 12.6720
53.8482 12.7906
53.8587 12.9217
53.8691 13.0668
53.8796 13.2280
53.8901 13.4071
53.8990 13.5750
53.9078 13.7596
53.9167 13.9628
53.9256 14.1866
53.9344 14.4341
53.9433 14.7078
53.9522 15.0110
53.9610 15.3467
53.9699 15.7195
53.9788 16.1334
53.9876 16.5929
53.9965 17.1027
54.0054 17.6692
54.0142 18.2971
54.0231 18.9940
54.0320 19.7651
54.0368 20.2204
54.0416 20.7013
54.0465 21.2089
54.0513 21.7433
54.0562 22.3080
54.0610 22.9017
54.0658 23.5283
54.0707 24.1863
54.0755 24.8797
54.0803 25.6083
54.0852 26.3733
54.0900 27.1741
54.0997 28.8944
54.1093 30.7774
54.1182 32.6540
54.1271 34.6788
54.1360 36.8554
54.1448 39.1840
54.1537 41.6710
54.1626 44.3136
54.1714 47.1102
54.1803 50.0535
54.1932 54.5953
54.2061 59.4190
54.2190 64.4919
54.2319 69.7692
54.2496 77.2830
54.2673 84.9507
54.2867 93.3130
54.3045 100.814
54.3222 107.974
54.3402 114.725
54.3582 120.867
54.3680 123.927
54.3680 146.068
60.0000 137.572
72.0000 119.470
85.0000 99.8585
100.000 77.2304
125.000 72.6274
140.000 69.8656
150.000 68.0245
170.000 64.3421
200.000 58.8185
250.000 54.7357
260.000 53.9191
300.000 50.6529
350.000 48.8755
400.000 47.0980
500.000 43.5431
560.000 41.4102
600.000 39.9882
640.000 39.4053
720.000 38.2394
850.000 36.3449
900.000 35.6162
1000.00 34.1589
1200.00 32.9755
1250.00 32.6797
1500.00 31.2005
1600.00 30.6088
2000.00 28.2420
2500.00 26.9118
3000.00 25.5817
3200.00 25.3426
3600.00 24.8645
4000.00 24.3863
5000.00 23.1984
6000.00 22.0158
7000.00 21.4975
7200.00 21.3945
8000.00 20.9823
8500.00 20.7261
9000.00 20.4699
10000.0 19.9597
12500.0 19.3700
12854.2 19.2865
13052.2 19.2398
13052.2 19.2398
16134.3 18.5264
16134.3 18.5264
20000.0 17.6491
30000.0 16.4354
40000.0 15.7224
50000.0 15.0427
57018.0 14.5815
57018.0 14.5815
60000.0 14.3890
67181.2 14.0610
70000.0 13.9391
72378.3 13.8375
72378.3 13.8375
80000.0 13.5264
84717.8 13.3383
84717.8 13.3383
90000.0 13.1387
100000 12.7714
105327 12.5975
116171 12.2546
116171 12.2546
119406 12.1553
119406 12.1553
123144 12.0441
129420 11.8678
129421 11.8678
140677 11.5613
140677 11.5613
144310 11.4698
144310 11.4698
145665 11.4360
145666 11.4360
150000 11.3350
169023 10.9103
169024 10.9103
174110 10.8016
174110 10.8015
178935 10.7019
178935 10.7018
187728 10.5283
193949 10.4087
199246 10.3110
199247 10.3109
200000 10.2973
203966 10.2139
203966 10.2139
213926 10.0146
213926 10.0146
218045 9.93446
224526 9.81642
227105 9.77100
227105 9.77100
232225 9.68262
236999 9.60174
241030 9.53458
242168 9.51576
250000 9.38911
258149 9.26072
258150 9.26071
266553 9.14777
300000 8.73154
350000 8.13741
400000 7.63552
450000 7.20898
500000 6.84954
516682 6.74151
550000 6.54365
600000 6.28750
650000 6.07201
700000 5.89356
750000 5.74700
800000 5.62821
850000 5.53463
900000 5.46176
950000 5.40895
1.00000E+06 5.37151
1.10000E+06 5.34293
1.12868E+06 5.34239
1.20000E+06 5.35292
1.30000E+06 5.40303
1.40000E+06 5.47216
1.47346E+06 5.53972
1.50000E+06 5.56538
1.60000E+06 5.66596
1.63879E+06 5.70967
1.70000E+06 5.77931
1.80000E+06 5.89332
1.90000E+06 6.01152
2.00000E+06 6.12636
2.10000E+06 6.23904
2.20000E+06 6.34597
2.30000E+06 6.44637
2.40000E+06 6.53960
2.43339E+06 6.56858
2.47562E+06 6.60401
2.50000E+06 6.62383
2.60000E+06 6.70017
2.70000E+06 6.76675
2.80000E+06 6.82529
2.90000E+06 6.87457
3.00000E+06 6.91610
3.02247E+06 6.92424
3.02248E+06 6.92424
3.10000E+06 6.94946
3.20000E+06 6.97570
3.21017E+06 6.97797
3.30000E+06 6.99492
3.40000E+06 7.00790
3.50000E+06 7.01456
3.52360E+06 7.01533
3.57321E+06 7.01602
3.58338E+06 7.01600
3.59837E+06 7.01589
3.60000E+06 7.01587
3.60850E+06 7.01565
3.65623E+06 7.01381
3.66628E+06 7.01328
3.70000E+06 7.01118
3.70020E+06 7.01117
3.70972E+06 7.01048
3.78247E+06 7.00398
3.80000E+06 7.00209
3.90000E+06 6.98678
3.93904E+06 6.97984
3.98287E+06 6.97143
4.00000E+06 6.96798
4.07837E+06 6.94863
4.13696E+06 6.93302
4.13697E+06 6.93302
4.14305E+06 6.93134
4.16781E+06 6.92445
4.19178E+06 6.91762
4.20000E+06 6.91525
4.23266E+06 6.90454
4.35635E+06 6.86191
4.40000E+06 6.84617
4.41214E+06 6.84131
4.41676E+06 6.83946
4.46584E+06 6.81951
4.47619E+06 6.81527
4.50442E+06 6.80359
4.51226E+06 6.80034
4.54453E+06 6.78683
4.57589E+06 6.77358
4.57780E+06 6.77277
4.59976E+06 6.76343
4.60000E+06 6.76333
4.60102E+06 6.76286
4.61468E+06 6.75658
4.64693E+06 6.74165
4.66965E+06 6.73106
4.69187E+06 6.72068
4.69770E+06 6.71795
4.70696E+06 6.71361
4.71080E+06 6.71181
4.71190E+06 6.71129
4.71300E+06 6.71077
4.72041E+06 6.70727
4.73683E+06 6.69954
4.80000E+06 6.66961
5.00000E+06 6.56749
5.20000E+06 6.45927
5.40000E+06 6.34672
5.54160E+06 6.26471
5.60000E+06 6.23122
5.75986E+06 6.13733
5.80000E+06 6.11405
5.83464E+06 6.09369
6.00000E+06 5.99651
6.09439E+06 5.94101
6.20000E+06 5.87993
6.21414E+06 5.87055
6.23070E+06 5.85960
6.25734E+06 5.84463
6.30549E+06 5.81776
6.40000E+06 5.76575
6.40289E+06 5.76412
6.41577E+06 5.75688
6.41789E+06 5.75568
6.60000E+06 5.65535
6.80000E+06 5.55003
6.80681E+06 5.54658
6.90506E+06 5.49732
7.00000E+06 5.45094
7.02895E+06 5.43728
7.02895E+06 5.43728
7.20000E+06 5.35893
7.26999E+06 5.32878
7.40000E+06 5.27468
7.60000E+06 5.19859
7.80000E+06 5.13084
7.92892E+06 5.09177
7.95683E+06 5.08366
8.00000E+06 5.07135
8.44326E+06 4.96999
8.50000E+06 4.95702
8.86876E+06 4.90102
9.00000E+06 4.88577
9.04307E+06 4.88131
9.31260E+06 4.85883
9.44624E+06 4.85103
9.50000E+06 4.84850
9.87287E+06 4.83723
1.00000E+07 4.83660
1.00863E+07 4.83628
1.01652E+07 4.83657
1.05000E+07 4.84341
1.08540E+07 4.85673
1.08557E+07 4.85681
1.08558E+07 4.85681
1.08867E+07 4.85845
1.10000E+07 4.86445
1.10639E+07 4.86793
1.10823E+07 4.86896
1.15000E+07 4.89688
1.15348E+07 4.89954
1.15349E+07 4.89954
1.15489E+07 4.90061
1.16167E+07 4.90595
1.16847E+07 4.91164
1.18501E+07 4.92549
1.20000E+07 4.93894
1.25000E+07 4.98920
1.29947E+07 5.04577
1.30000E+07 5.04639
1.31604E+07 5.06634
1.33002E+07 5.08385
1.34392E+07 5.10134
1.35000E+07 5.10900
1.35601E+07 5.11698
1.38530E+07 5.15585
1.38530E+07 5.15586
1.40000E+07 5.17528
1.40138E+07 5.17715
1.41401E+07 5.19427
1.42994E+07 5.21571
1.42995E+07 5.21571
1.43257E+07 5.21933
1.43272E+07 5.21954
1.45000E+07 5.24319
1.45110E+07 5.24470
1.46527E+07 5.26408
1.50000E+07 5.31052
1.51362E+07 5.32850
1.51589E+07 5.33147
1.55000E+07 5.37501
1.55410E+07 5.38011
1.57964E+07 5.41101
1.59162E+07 5.42504
1.60000E+07 5.43467
1.62483E+07 5.46129
1.63764E+07 5.47443
1.65000E+07 5.48673
1.67473E+07 5.51013
1.68073E+07 5.51556
1.68290E+07 5.51750
1.70000E+07 5.53233
1.71458E+07 5.54316
1.71458E+07 5.54317
1.71768E+07 5.54530
1.73724E+07 5.55879
1.73951E+07 5.56027
1.75000E+07 5.56693
1.75151E+07 5.56786
1.77168E+07 5.57968
1.77467E+07 5.58132
1.80000E+07 5.59423
1.81524E+07 5.59988
1.84846E+07 5.60980
1.85000E+07 5.61018
1.86127E+07 5.61276
1.89202E+07 5.61791
1.89616E+07 5.61839
1.90000E+07 5.61880
1.92848E+07 5.61938
1.93821E+07 5.61906
1.93821E+07 5.61906
1.94131E+07 5.61887
1.95000E+07 5.61832
1.96087E+07 5.61731
2.00000E+07 5.61109
2.07031E+07 5.58856
2.10000E+07 5.57914
2.20000E+07 5.53007
2.30000E+07 5.46886
2.40000E+07 5.39812
2.50000E+07 5.31862
2.60000E+07 5.23025
2.70000E+07 5.13341
2.80000E+07 5.03016
2.90000E+07 4.92405
3.00000E+07 4.81835
3.00000E+07 4.81993
3.00000E+07 4.81993
3.10000E+07 4.72097
3.20000E+07 4.62793
3.30000E+07 4.54432
3.40000E+07 4.46873
3.50000E+07 4.40121
3.60000E+07 4.34190
3.70000E+07 4.28927
3.80000E+07 4.24439
3.90000E+07 4.20664
4.00000E+07 4.17626
4.10000E+07 4.15352
4.20000E+07 4.13762
4.30000E+07 4.12866
4.40000E+07 4.12557
4.50000E+07 4.12793
4.60000E+07 4.13494
4.70000E+07 4.14600
4.80000E+07 4.16050
4.90000E+07 4.17804
5.00000E+07 4.19803
5.10000E+07 4.22024
5.20000E+07 4.24404
5.30000E+07 4.26932
5.40000E+07 4.29541
5.50000E+07 4.32222
5.60000E+07 4.34919
5.70000E+07 4.37623
5.80000E+07 4.40287
5.90000E+07 4.42908
6.00000E+07 4.45446
6.10000E+07 4.47920
6.20000E+07 4.50280
6.30000E+07 4.52512
6.40000E+07 4.54604
6.50000E+07 4.56549
6.60000E+07 4.58394
6.70000E+07 4.60085
6.80000E+07 4.61607
6.90000E+07 4.62963
7.00000E+07 4.64151
7.10000E+07 4.65219
7.20000E+07 4.66120
7.30000E+07 4.66854
7.40000E+07 4.67424
7.50000E+07 4.67832
7.60000E+07 4.68125
7.70000E+07 4.68265
7.80000E+07 4.68249
7.90000E+07 4.68091
8.00000E+07 4.67789
8.10000E+07 4.67412
8.20000E+07 4.66902
8.30000E+07 4.66265
8.40000E+07 4.65509
8.50000E+07 4.64636
8.60000E+07 4.63652
8.70000E+07 4.62564
8.80000E+07 4.61374
8.90000E+07 4.60091
9.00000E+07 4.58715
9.10000E+07 4.57323
9.20000E+07 4.55848
9.30000E+07 4.54301
9.40000E+07 4.52678
9.50000E+07 4.50996
9.60000E+07 4.49244
9.70000E+07 4.47435
9.80000E+07 4.45579
9.90000E+07 4.43666
1.00000E+08 4.41714
1.02000E+08 4.37790
1.04000E+08 4.33723
1.06000E+08 4.29541
1.08000E+08 4.25266
1.10000E+08 4.20908
1.12000E+08 4.16597
1.14000E+08 4.12253
1.16000E+08 4.07888
1.18000E+08 4.03518
1.20000E+08 3.99155
1.22000E+08 3.94883
1.24000E+08 3.90639
1.26000E+08 3.86417
1.28000E+08 3.82253
1.30000E+08 3.78140
1.32000E+08 3.74143
1.34000E+08 3.70209
1.36000E+08 3.66322
1.38000E+08 3.62519
1.40000E+08 3.58788
1.42000E+08 3.55180
1.44000E+08 3.51647
1.46000E+08 3.48175
1.48000E+08 3.44796
1.50000E+08 3.41494
1.52000E+08 3.38314
1.54000E+08 3.35194
1.56000E+08 3.32168
1.58000E+08 3.29219
1.60000E+08 3.26348
1.62000E+08 3.23586
1.64000E+08 3.20915
1.66000E+08 3.18318
1.68000E+08 3.15778
1.70000E+08 3.13322
1.72000E+08 3.10936
1.74000E+08 3.08618
1.76000E+08 3.06367
1.78000E+08 3.04167
1.80000E+08 3.02045
1.82000E+08 3.00039
1.84000E+08 2.98095
1.86000E+08 2.96194
1.88000E+08 2.94367
1.90000E+08 2.92595
1.92000E+08 2.90878
1.94000E+08 2.89215
1.96000E+08 2.87589
1.98000E+08 2.86028
2.00000E+08 2.84516
