Ir-191(n,tot) ENDFB-8.0
Energy(eV) XS(b)
1.00000E-05 49087.7
1.03125E-05 48338.3
1.06250E-05 47622.1
1.09375E-05 46936.9
1.12500E-05 46280.5
1.15625E-05 45650.8
1.18750E-05 45046.2
1.21875E-05 44464.9
1.25000E-05 43905.6
1.28125E-05 43366.9
1.31250E-05 42847.6
1.34375E-05 42346.4
1.37500E-05 41862.5
1.43750E-05 40942.4
1.50000E-05 40080.4
1.56250E-05 39270.6
1.62500E-05 38508.1
1.68750E-05 37788.3
1.75000E-05 37107.4
1.81250E-05 36462.1
1.87500E-05 35849.2
1.93750E-05 35266.3
2.00000E-05 34711.0
2.09375E-05 33925.0
2.18750E-05 33190.2
2.28125E-05 32501.1
2.37500E-05 31853.2
2.46875E-05 31242.6
2.56250E-05 30665.8
2.65625E-05 30119.9
2.75000E-05 29602.1
2.84375E-05 29110.1
2.93750E-05 28641.8
3.03125E-05 28195.5
3.12500E-05 27769.4
3.21875E-05 27362.1
3.31250E-05 26972.1
3.40625E-05 26598.4
3.50000E-05 26239.8
3.59375E-05 25895.3
3.68750E-05 25564.1
3.78125E-05 25245.2
3.87500E-05 24938.0
3.96875E-05 24641.8
4.06250E-05 24355.8
4.25000E-05 23812.6
4.43750E-05 23304.2
4.62500E-05 22827.0
4.81250E-05 22378.0
5.00000E-05 21954.4
5.15625E-05 21619.3
5.31250E-05 21299.1
5.46875E-05 20992.6
5.62500E-05 20699.1
5.78125E-05 20417.5
5.93750E-05 20147.1
6.09375E-05 19887.2
6.25000E-05 19637.1
6.40625E-05 19396.2
6.56250E-05 19164.0
6.71875E-05 18939.9
6.87500E-05 18723.5
7.18750E-05 18312.0
7.50000E-05 17926.6
7.81250E-05 17564.5
8.12500E-05 17223.5
8.43750E-05 16901.6
8.75000E-05 16597.1
9.06250E-05 16308.6
9.37500E-05 16034.5
9.68750E-05 15773.9
0.000100000 15525.5
0.000103125 15288.6
0.000106250 15062.2
0.000109375 14845.5
0.000112500 14637.9
0.000115625 14438.8
0.000118750 14247.7
0.000121875 14063.9
0.000125000 13887.1
0.000128125 13716.7
0.000131250 13552.5
0.000134375 13394.1
0.000137500 13241.1
0.000143750 12950.1
0.000150000 12677.6
0.000156250 12421.6
0.000162500 12180.5
0.000168750 11952.9
0.000175000 11737.6
0.000181250 11533.6
0.000187500 11339.8
0.000193750 11155.5
0.000200000 10979.9
0.000209375 10731.5
0.000218750 10499.1
0.000228125 10281.2
0.000237500 10076.4
0.000246875 9883.36
0.000256250 9701.00
0.000265625 9528.38
0.000275000 9364.67
0.000284375 9209.12
0.000293750 9061.08
0.000303125 8919.96
0.000312500 8785.24
0.000321875 8656.45
0.000331250 8533.17
0.000340625 8415.01
0.000350000 8301.63
0.000359375 8192.72
0.000368750 8087.99
0.000378125 7987.17
0.000387500 7890.04
0.000396875 7796.37
0.000406250 7705.96
0.000425000 7534.20
0.000443750 7373.45
0.000462500 7222.57
0.000481250 7080.60
0.000500000 6946.68
0.000515625 6840.72
0.000531250 6739.46
0.000546875 6642.57
0.000562500 6549.75
0.000578125 6460.71
0.000593750 6375.22
0.000609375 6293.03
0.000625000 6213.94
0.000640625 6137.77
0.000656250 6064.33
0.000671875 5993.46
0.000687500 5925.03
0.000718750 5794.92
0.000750000 5673.02
0.000781250 5558.51
0.000812500 5450.67
0.000843750 5348.88
0.000875000 5252.59
0.000906250 5161.32
0.000937500 5074.65
0.000968750 4992.20
0.00100000 4913.66
0.00103125 4838.70
0.00106250 4767.08
0.00109375 4698.55
0.00112500 4632.89
0.00115625 4569.91
0.00118750 4509.43
0.00121875 4451.30
0.00125000 4395.35
0.00128125 4341.46
0.00131250 4289.51
0.00134375 4239.38
0.00137500 4190.97
0.00143750 4098.92
0.00150000 4012.68
0.00156250 3931.66
0.00162500 3855.36
0.00168750 3783.34
0.00175000 3715.20
0.00181250 3650.62
0.00187500 3589.29
0.00193750 3530.95
0.00200000 3475.36
0.00209375 3396.69
0.00218750 3323.12
0.00228125 3254.13
0.00237500 3189.26
0.00246875 3128.12
0.00256250 3070.36
0.00265625 3015.68
0.00275000 2963.81
0.00284375 2914.53
0.00293750 2867.63
0.00303125 2822.91
0.00312500 2780.22
0.00321875 2739.41
0.00331250 2700.33
0.00340625 2662.88
0.00350000 2626.94
0.00359375 2592.42
0.00368750 2559.22
0.00378125 2527.25
0.00387500 2496.46
0.00396875 2466.75
0.00406250 2438.08
0.00425000 2383.61
0.00443750 2332.61
0.00462500 2284.75
0.00481250 2239.70
0.00500000 2197.20
0.00515625 2163.57
0.00531250 2131.42
0.00546875 2100.66
0.00562500 2071.19
0.00578125 2042.92
0.00593750 2015.77
0.00609375 1989.67
0.00625000 1964.55
0.00640625 1940.35
0.00656250 1917.01
0.00671875 1894.50
0.00687500 1872.75
0.00718750 1831.40
0.00750000 1792.65
0.00781250 1756.23
0.00812500 1721.93
0.00843750 1689.55
0.00875000 1658.90
0.00906250 1629.85
0.00937500 1602.26
0.00968750 1576.01
0.0100000 1550.99
0.0103125 1527.11
0.0106250 1504.29
0.0109375 1482.45
0.0112500 1461.53
0.0115625 1441.45
0.0118750 1422.17
0.0121875 1403.64
0.0125000 1385.80
0.0128125 1368.61
0.0131250 1352.04
0.0134375 1336.05
0.0137500 1320.60
0.0143750 1291.23
0.0150000 1263.69
0.0156250 1237.82
0.0162500 1213.44
0.0168750 1190.41
0.0175000 1168.63
0.0181250 1147.97
0.0187500 1128.35
0.0193750 1109.68
0.0200000 1091.89
0.0206625 1073.92
0.0213250 1056.78
0.0219875 1040.42
0.0226500 1024.78
0.0233125 1009.81
0.0239750 995.464
0.0246375 981.694
0.0253000 968.466
0.0263613 948.319
0.0274227 929.348
0.0284840 911.444
0.0295453 894.510
0.0306067 878.463
0.0316680 863.229
0.0327293 848.743
0.0337906 834.945
0.0348037 822.366
0.0358168 810.324
0.0368299 798.781
0.0378430 787.702
0.0388561 777.059
0.0398692 766.823
0.0408822 756.969
0.0418953 747.476
0.0429084 738.323
0.0439215 729.489
0.0449346 720.958
0.0459477 712.713
0.0479738 697.020
0.0500000 682.300
0.0515625 671.554
0.0531250 661.293
0.0546875 651.482
0.0562500 642.090
0.0578125 633.089
0.0593750 624.455
0.0609375 616.163
0.0625000 608.194
0.0640625 600.527
0.0656250 593.146
0.0671875 586.035
0.0687500 579.179
0.0703125 572.564
0.0718750 566.176
0.0750000 554.034
0.0781250 542.662
0.0812500 531.990
0.0843750 521.957
0.0875000 512.510
0.0906250 503.600
0.0937500 495.185
0.0968750 487.226
0.100000 479.689
0.103125 472.545
0.106250 465.766
0.109375 459.327
0.112500 453.207
0.115625 447.386
0.118750 441.845
0.121875 436.569
0.125000 431.543
0.128125 426.752
0.131250 422.185
0.134375 417.831
0.137500 413.678
0.140625 409.717
0.143750 405.941
0.146875 402.340
0.150000 398.909
0.153125 395.641
0.156250 392.529
0.162500 386.741
0.168750 381.499
0.175000 376.769
0.181250 372.525
0.187500 368.739
0.193750 365.388
0.200000 362.452
0.204688 360.515
0.209375 358.799
0.214063 357.298
0.218750 356.009
0.223438 354.928
0.228125 354.050
0.232813 353.375
0.237500 352.899
0.242188 352.623
0.246875 352.545
0.251563 352.665
0.256250 352.985
0.260938 353.505
0.265625 354.228
0.270313 355.154
0.275000 356.287
0.281445 358.190
0.287891 360.501
0.294336 363.232
0.300781 366.400
0.307227 370.020
0.313672 374.114
0.320117 378.703
0.326563 383.814
0.332422 388.937
0.338281 394.541
0.344141 400.651
0.350000 407.299
0.353223 411.197
0.356445 415.273
0.359668 419.535
0.362891 423.989
0.366113 428.643
0.369336 433.503
0.372559 438.579
0.375781 443.878
0.379004 449.411
0.382227 455.186
0.385449 461.214
0.388672 467.507
0.391895 474.075
0.395117 480.930
0.398340 488.086
0.401563 495.557
0.404492 502.633
0.407422 509.993
0.410352 517.650
0.413281 525.616
0.416211 533.907
0.419141 542.538
0.422070 551.526
0.425000 560.887
0.428223 571.638
0.431445 582.889
0.434668 594.667
0.437891 607.003
0.441113 619.927
0.444336 633.474
0.447559 647.681
0.450781 662.586
0.454004 678.233
0.457227 694.667
0.460449 711.940
0.463672 730.103
0.466895 749.217
0.470117 769.345
0.473340 790.555
0.476563 812.924
0.479492 834.332
0.482422 856.832
0.485352 880.494
0.488281 905.397
0.491211 931.622
0.494141 959.262
0.500000 1019.19
0.504095 1065.14
0.508190 1114.84
0.512285 1168.71
0.516380 1227.20
0.520475 1290.83
0.524570 1360.21
0.528665 1436.02
0.532760 1519.05
0.536173 1594.39
0.539585 1675.97
0.542998 1764.46
0.546410 1860.64
0.548116 1911.88
0.549823 1965.38
0.551529 2021.27
0.553235 2079.67
0.554941 2140.74
0.556648 2204.63
0.558354 2271.52
0.560060 2341.55
0.562563 2450.39
0.565065 2567.08
0.567568 2692.30
0.568819 2758.36
0.570070 2826.84
0.571321 2897.86
0.572573 2971.52
0.573824 3047.95
0.575075 3127.25
0.576326 3209.58
0.577578 3295.04
0.578829 3383.79
0.580080 3475.95
0.581445 3580.56
0.582810 3689.62
0.584175 3803.32
0.585540 3921.87
0.586905 4045.48
0.588270 4174.38
0.589635 4308.78
0.591000 4448.90
0.592251 4582.58
0.593503 4721.40
0.594754 4865.58
0.596005 5015.24
0.597256 5170.56
0.598508 5331.67
0.599759 5498.73
0.601010 5671.84
0.602261 5851.12
0.603513 6036.64
0.604764 6228.48
0.606015 6426.64
0.607266 6631.17
0.608518 6841.98
0.609769 7059.05
0.611020 7282.20
0.612838 7616.88
0.614655 7963.35
0.616473 8320.61
0.618290 8687.37
0.620108 9062.00
0.621925 9442.57
0.623743 9826.79
0.625560 10212.1
0.628681 10867.5
0.631803 11500.3
0.634924 12091.8
0.638045 12622.4
0.641166 13072.6
0.642727 13261.9
0.644288 13424.8
0.645848 13559.4
0.647409 13664.3
0.648969 13738.4
0.650530 13780.8
0.652800 13785.0
0.655638 13694.8
0.658475 13501.6
0.661313 13212.1
0.664150 12836.4
0.665863 12573.1
0.667575 12285.7
0.669287 11977.6
0.671000 11651.9
0.674425 10960.7
0.677849 10236.8
0.681274 9502.89
0.684699 8777.89
0.688124 8076.85
0.691549 7410.80
0.694888 6801.93
0.698228 6237.01
0.701567 5717.39
0.703237 5474.50
0.704907 5242.69
0.706577 5021.68
0.708247 4811.19
0.709916 4610.89
0.711586 4420.42
0.713256 4239.37
0.714926 4067.37
0.716595 3903.98
0.718265 3748.82
0.719935 3601.48
0.721605 3461.57
0.723274 3328.70
0.724944 3202.51
0.728284 2968.72
0.731623 2757.51
0.734963 2566.43
0.738302 2393.29
0.741642 2236.14
0.744981 2093.23
0.748321 1963.02
0.751660 1844.16
0.755000 1735.44
0.758339 1635.80
0.761679 1544.31
0.765019 1460.15
0.768358 1382.59
0.771698 1310.98
0.774734 1250.56
0.777769 1194.20
0.780805 1141.55
0.783841 1092.30
0.786877 1046.17
0.789913 1002.90
0.792949 962.278
0.795985 924.087
0.799021 888.142
0.802057 854.276
0.805093 822.334
0.808129 792.177
0.811165 763.677
0.814201 736.717
0.820273 687.001
0.823612 661.825
0.826952 638.048
0.830291 615.567
0.833631 594.293
0.840310 555.032
0.846989 519.678
0.853668 487.733
0.860347 458.775
0.867026 432.447
0.873705 408.441
0.877955 394.252
0.882206 380.836
0.890706 356.112
0.899207 333.886
0.907708 313.836
0.916208 295.683
0.924709 279.188
0.933209 264.150
0.941710 250.402
0.948996 239.536
0.956283 229.436
0.963569 220.031
0.970855 211.260
0.978141 203.065
0.985428 195.398
0.992714 188.212
1.00000 181.469
1.00684 175.514
1.01367 169.891
1.02734 159.546
1.04102 150.267
1.05469 141.913
1.06836 134.362
1.08203 127.504
1.09570 121.250
1.10938 115.533
1.12695 108.879
1.14453 102.908
1.16211 97.5272
1.17969 92.6597
1.19727 88.2403
1.21484 84.2142
1.23242 80.5347
1.25000 77.1618
1.27344 73.0831
1.29688 69.4207
1.32031 66.1178
1.34375 63.1273
1.36719 60.4097
1.39063 57.9348
1.41406 55.6761
1.43750 53.5996
1.46875 51.0785
1.50000 48.8107
1.53125 46.7629
1.56250 44.9066
1.59375 43.2179
1.62500 41.6764
1.65625 40.2651
1.68750 38.9693
1.71875 37.7766
1.75000 36.6761
1.78125 35.6585
1.81250 34.7156
1.84375 33.8403
1.87500 33.0265
1.90625 32.2692
1.93750 31.5669
2.00000 30.2918
2.03223 29.6943
2.06445 29.1379
2.12891 28.1310
2.19336 27.2482
2.25781 26.4736
2.32227 25.7939
2.38672 25.1987
2.45117 24.6793
2.51563 24.2290
2.57422 23.8792
2.63281 23.5760
2.69141 23.3166
2.75000 23.0988
2.84375 22.8409
2.92578 22.7015
3.00781 22.6418
3.08984 22.6626
3.17188 22.7663
3.25391 22.9504
3.33594 23.2366
3.41797 23.6281
3.50000 24.1374
3.56445 24.6309
3.62891 25.2176
3.69336 25.9098
3.75781 26.7229
3.82227 27.6758
3.85449 28.2116
3.88672 28.7916
3.91895 29.4194
3.95117 30.0994
3.98340 30.8363
4.01563 31.6355
4.04492 32.4213
4.07422 33.2686
4.10352 34.1834
4.13281 35.1717
4.16211 36.2398
4.19141 37.3941
4.22070 38.6449
4.25000 40.0064
4.28223 41.6467
4.31445 43.4525
4.34668 45.4445
4.37891 47.6473
4.41113 50.0906
4.44336 52.8088
4.47559 55.8433
4.50781 59.2431
4.53858 62.8837
4.56934 66.9731
4.58472 69.2091
4.60010 71.5866
4.61548 74.1178
4.63086 76.8155
4.64624 79.6949
4.66162 82.7719
4.67700 86.0645
4.69238 89.5923
4.70777 93.3775
4.72315 97.4455
4.73853 101.826
4.75391 106.551
4.76563 110.408
4.77735 114.507
4.78906 118.869
4.80078 123.515
4.81616 130.089
4.83154 137.260
4.84693 145.103
4.85462 149.303
4.86231 153.703
4.87000 158.318
4.87769 163.159
4.88538 168.244
4.89307 173.588
4.90076 179.211
4.90845 185.129
4.91614 191.366
4.92383 197.945
4.93189 205.233
4.93994 212.956
4.94800 221.151
4.95606 229.855
4.96411 239.114
4.97217 248.973
4.98023 259.488
4.98828 270.716
4.99414 279.367
5.00000 288.459
5.00680 299.598
5.01359 311.422
5.02039 323.990
5.02718 337.364
5.03398 351.618
5.04077 366.827
5.04757 383.084
5.05437 400.483
5.06116 419.139
5.06796 439.171
5.07475 460.726
5.08155 483.955
5.08834 509.045
5.09174 522.351
5.09514 536.196
5.09854 550.619
5.10193 565.648
5.10533 581.319
5.10873 597.664
5.11213 614.731
5.11553 632.561
5.11892 651.199
5.12232 670.689
5.12572 691.097
5.12912 712.476
5.13251 734.888
5.13591 758.395
5.13931 783.085
5.14271 809.031
5.14611 836.320
5.14950 865.040
5.15290 895.309
5.15630 927.233
5.15970 960.935
5.16309 996.538
5.16618 1030.70
5.16927 1066.68
5.17236 1104.61
5.17545 1144.63
5.17854 1186.91
5.18163 1231.60
5.18472 1278.89
5.18780 1328.96
5.19089 1382.05
5.19398 1438.39
5.19707 1498.23
5.20016 1561.83
5.20325 1629.51
5.20634 1701.57
5.20943 1778.36
5.21252 1860.22
5.21591 1956.67
5.21931 2060.33
5.22271 2171.80
5.22611 2291.69
5.22950 2420.75
5.23290 2559.63
5.23630 2709.09
5.23970 2869.81
5.24310 3042.66
5.24649 3228.36
5.24989 3427.63
5.25329 3641.15
5.25669 3869.69
5.26008 4113.79
5.26348 4373.95
5.26688 4650.46
5.27028 4943.73
5.27368 5253.72
5.27707 5580.28
5.28047 5922.92
5.28387 6281.21
5.28727 6654.10
5.29066 7040.37
5.29406 7438.34
5.30099 8278.06
5.30791 9138.21
5.31484 9993.39
5.32176 10813.4
5.32586 11268.8
5.32996 11693.6
5.33405 12081.1
5.33815 12424.7
5.34225 12718.6
5.34635 12957.7
5.35044 13137.5
5.35454 13254.8
5.35727 13297.2
5.36000 13310.6
5.36273 13294.7
5.36717 13207.3
5.37161 13045.4
5.37605 12812.7
5.38049 12514.3
5.38492 12156.5
5.38936 11746.8
5.39380 11293.2
5.39824 10804.3
5.40552 9947.80
5.41281 9056.63
5.42009 8164.27
5.42738 7298.79
5.43099 6885.95
5.43461 6487.16
5.43823 6104.03
5.44184 5737.77
5.44546 5389.23
5.44908 5058.94
5.45269 4747.13
5.45631 4453.84
5.45993 4178.65
5.46354 3921.22
5.46716 3680.97
5.47078 3457.19
5.47440 3249.12
5.47801 3055.91
5.48163 2876.70
5.48525 2710.65
5.48870 2563.50
5.49215 2426.80
5.49560 2299.71
5.49906 2181.63
5.50251 2071.82
5.50596 1969.70
5.50941 1874.63
5.51287 1786.11
5.51632 1703.57
5.51977 1626.59
5.52322 1554.67
5.52668 1487.45
5.53013 1424.53
5.53358 1365.60
5.53703 1310.31
5.54049 1258.41
5.54410 1207.37
5.54772 1159.46
5.55134 1114.46
5.55495 1072.13
5.55857 1032.26
5.56219 994.668
5.56580 959.190
5.56942 925.676
5.57665 863.945
5.58389 808.499
5.59112 758.511
5.59836 713.293
5.60329 684.881
5.60822 658.253
5.61315 633.258
5.61808 609.765
5.62302 587.656
5.62795 566.826
5.63288 547.178
5.63781 528.625
5.64768 494.492
5.65754 463.885
5.66741 436.339
5.67727 411.472
5.68450 394.749
5.69174 379.182
5.69897 364.674
5.70621 351.139
5.71344 338.499
5.72067 326.686
5.72791 315.639
5.73514 305.303
5.74237 295.627
5.74961 286.569
5.75684 278.089
5.76408 270.153
5.77131 262.728
5.77854 255.787
5.79301 243.265
5.80616 233.347
5.81932 224.736
5.83247 217.376
5.84562 211.243
5.85877 206.347
5.87193 202.736
5.87850 201.442
5.88508 200.510
5.89165 199.964
5.89823 199.831
5.90744 200.406
5.91664 201.982
5.92585 204.717
5.93045 206.583
5.93506 208.821
5.93966 211.469
5.94426 214.566
5.94887 218.160
5.95347 222.304
5.95807 227.059
5.96268 232.490
5.96728 238.673
5.97188 245.690
5.97517 251.266
5.97846 257.349
5.98175 263.977
5.98504 271.192
5.98832 279.034
5.99161 287.546
5.99490 296.773
5.99819 306.757
6.00148 317.543
6.00476 329.175
6.00805 341.694
6.01134 355.138
6.01463 369.543
6.01792 384.939
6.02120 401.350
6.02449 418.793
6.02975 448.863
6.03501 481.562
6.04027 516.782
6.04554 554.316
6.05277 609.111
6.06000 666.508
6.06724 724.935
6.07447 782.445
6.08233 841.326
6.08626 868.444
6.09019 893.503
6.09412 916.153
6.09805 936.042
6.10198 952.872
6.10591 966.364
6.10918 974.901
6.11245 980.869
6.11573 984.199
6.11900 984.849
6.12293 982.076
6.12686 975.467
6.13079 965.120
6.13471 951.194
6.13904 931.986
6.14336 909.052
6.14768 882.799
6.15201 853.680
6.15633 822.177
6.16065 788.789
6.16930 718.347
6.17699 654.034
6.18469 590.652
6.19238 530.057
6.19623 501.256
6.20008 473.632
6.20393 447.264
6.20777 422.223
6.21162 398.548
6.21547 376.259
6.21932 355.340
6.22317 335.775
6.22701 317.527
6.23086 300.554
6.23418 286.872
6.23751 274.056
6.24083 262.064
6.24415 250.852
6.24748 240.376
6.25080 230.591
6.25412 221.454
6.25744 212.922
6.26077 204.954
6.26409 197.511
6.26741 190.553
6.27074 184.047
6.27406 177.958
6.27738 172.256
6.28071 166.910
6.28403 161.893
6.28823 155.988
6.29242 150.523
6.29662 145.454
6.30082 140.747
6.30502 136.363
6.30921 132.277
6.31341 128.458
6.31761 124.885
6.32181 121.533
6.32600 118.385
6.33440 112.630
6.34279 107.502
6.35119 102.904
6.35888 99.0886
6.36658 95.6036
6.37428 92.4070
6.38197 89.4647
6.38967 86.7463
6.39736 84.2272
6.40506 81.8853
6.41275 79.7025
6.42045 77.6622
6.42814 75.7509
6.44353 72.2668
6.45893 69.1694
6.47432 66.3954
6.48691 64.3306
6.49950 62.4260
6.51209 60.6626
6.52469 59.0243
6.53728 57.4972
6.54987 56.0696
6.56246 54.7312
6.57506 53.4735
6.60024 51.1712
6.62543 49.1133
6.65061 47.2615
6.67580 45.5855
6.69399 44.4701
6.71218 43.4257
6.73036 42.4456
6.74855 41.5239
6.78493 39.8362
6.82131 38.3292
6.85769 36.9772
6.89407 35.7583
6.93044 34.6532
6.96682 33.6474
6.99760 32.8661
7.02839 32.1429
7.05917 31.4730
7.08995 30.8519
7.12073 30.2757
7.15151 29.7413
7.18230 29.2457
7.21308 28.7865
7.27464 27.9684
7.33620 27.2730
7.39777 26.6899
7.45933 26.2119
7.50410 25.9277
7.54888 25.6959
7.61044 25.4628
7.67200 25.3310
7.73357 25.3056
7.76435 25.3354
7.79513 25.3952
7.82591 25.4869
7.85670 25.6124
7.88748 25.7742
7.91826 25.9750
7.94904 26.2180
7.97982 26.5068
8.01060 26.8455
8.04139 27.2394
8.07217 27.6951
8.10295 28.2209
8.13373 28.8252
8.16451 29.5180
8.19529 30.3111
8.22608 31.2189
8.25686 32.2588
8.28764 33.4517
8.31702 34.7568
8.34641 36.2520
8.36110 37.0810
8.37579 37.9705
8.39048 38.9260
8.40517 39.9535
8.41986 41.0597
8.43455 42.2519
8.44924 43.5386
8.46394 44.9294
8.47863 46.4350
8.49332 48.0678
8.50801 49.8419
8.52270 51.7738
8.53809 53.9872
8.55348 56.4190
8.56887 59.0981
8.58426 62.0579
8.59966 65.3380
8.61505 68.9851
8.63044 73.0548
8.64583 77.6137
8.65352 80.1015
8.66122 82.7430
8.66891 85.5516
8.67661 88.5408
8.68431 91.7273
8.69200 95.1278
8.69970 98.7630
8.70739 102.654
8.71509 106.826
8.72278 111.307
8.73048 116.128
8.73817 121.325
8.74587 126.939
8.75356 133.015
8.76126 139.607
8.76895 146.778
8.77735 155.343
8.78574 164.788
8.79414 175.243
8.80253 186.859
8.81093 199.821
8.81513 206.876
8.81932 214.352
8.82352 222.289
8.82772 230.723
8.83192 239.700
8.83611 249.265
8.84171 263.032
8.84451 270.388
8.84731 278.085
8.84993 285.634
8.85255 293.517
8.85518 301.762
8.85780 310.383
8.86043 319.411
8.86305 328.863
8.86567 338.772
8.86830 349.158
8.87092 360.061
8.87354 371.502
8.87617 383.524
8.87879 396.155
8.88141 409.441
8.88404 423.412
8.88666 438.123
8.88928 453.607
8.89121 465.487
8.89313 477.831
8.89506 490.658
8.89698 503.991
8.89890 517.851
8.90083 532.260
8.90275 547.242
8.90467 562.812
8.90660 579.010
8.90852 595.854
8.91045 613.370
8.91237 631.584
8.91429 650.523
8.91622 670.214
8.91814 690.685
8.92007 711.953
8.92199 734.067
8.92391 757.047
8.92584 780.920
8.92776 805.714
8.92969 831.460
8.93161 858.184
8.93353 885.915
8.93546 914.664
8.93738 944.489
8.93930 975.401
8.94123 1007.42
8.94315 1040.58
8.94508 1074.90
8.94700 1110.39
8.94892 1147.08
8.95085 1184.97
8.95277 1224.11
8.95470 1264.48
8.95662 1306.11
8.95854 1348.98
8.96239 1438.55
8.96624 1533.14
8.97009 1632.74
8.97393 1737.15
8.97778 1846.22
8.98163 1959.63
8.98548 2077.05
8.98932 2198.02
8.99317 2321.99
8.99702 2448.34
9.00087 2576.36
9.00471 2705.22
9.01241 2962.08
9.02071 3230.13
9.02900 3478.72
9.03615 3669.19
9.03973 3753.95
9.04330 3830.70
9.04688 3898.73
9.05045 3957.41
9.05403 4006.20
9.05760 4044.61
9.06280 4081.25
9.06800 4094.48
9.07190 4088.87
9.07580 4070.03
9.07970 4038.19
9.08360 3993.75
9.08750 3937.24
9.09140 3869.33
9.09530 3790.80
9.09920 3702.53
9.10310 3605.49
9.10700 3500.71
9.11093 3388.35
9.11486 3270.38
9.12272 3022.01
9.13058 2764.43
9.13844 2505.76
9.14638 2250.77
9.15431 2007.67
9.15828 1891.98
9.16224 1780.74
9.16621 1674.27
9.17017 1572.79
9.17414 1476.44
9.17811 1385.29
9.18207 1299.34
9.18604 1218.56
9.19000 1142.83
9.19397 1072.03
9.19794 1005.98
9.20190 944.506
9.20515 897.433
9.20839 853.144
9.21164 811.509
9.21488 772.399
9.21813 735.682
9.22137 701.228
9.22462 668.908
9.22786 638.597
9.23111 610.172
9.23435 583.515
9.23760 558.514
9.24084 535.059
9.24409 513.049
9.24733 492.386
9.25058 472.977
9.25382 454.742
9.25779 433.918
9.26175 414.580
9.26572 396.603
9.26968 379.871
9.27365 364.279
9.27762 349.730
9.28158 336.137
9.28555 323.420
9.28951 311.508
9.29348 300.334
9.29745 289.840
9.30141 279.972
9.30538 270.680
9.30934 261.921
9.31728 245.844
9.32232 236.510
9.32737 227.799
9.33242 219.658
9.33747 212.038
9.34251 204.894
9.34756 198.188
9.35261 191.885
9.35766 185.955
9.36775 175.098
9.37785 165.425
9.38794 156.775
9.39804 149.018
9.40597 143.477
9.41390 138.373
9.42183 133.668
9.42977 129.327
9.43770 125.320
9.44563 121.620
9.45356 118.205
9.46149 115.054
9.46943 112.150
9.47736 109.477
9.48529 107.022
9.49322 104.773
9.50115 102.720
9.50909 100.856
9.51702 99.1716
9.52495 97.6633
9.53937 95.3584
9.55379 93.6088
9.56822 92.4176
9.58264 91.8049
9.59562 91.7816
9.60860 92.3071
9.61509 92.7962
9.62158 93.4502
9.62807 94.2823
9.63456 95.3077
9.64105 96.5447
9.64754 98.0144
9.65403 99.7420
9.66052 101.756
9.66701 104.092
9.67350 106.790
9.67999 109.897
9.68648 113.467
9.69044 115.904
9.69441 118.554
9.69837 121.434
9.70234 124.564
9.70631 127.965
9.71027 131.659
9.71424 135.669
9.71820 140.023
9.72217 144.746
9.72614 149.868
9.73010 155.419
9.73407 161.430
9.73803 167.935
9.74200 174.965
9.74597 182.554
9.74993 190.737
9.75498 202.061
9.76003 214.463
9.76508 228.001
9.77012 242.724
9.77517 258.675
9.78022 275.873
9.78527 294.332
9.79031 314.030
9.79428 330.355
9.79825 347.393
9.80618 383.427
9.81411 421.648
9.82204 461.376
9.82997 501.708
9.83790 541.604
9.84582 579.878
9.85375 615.259
9.86166 646.397
9.86561 660.030
9.86956 672.188
9.87352 682.745
9.87747 691.593
9.88142 698.637
9.88538 703.802
9.88969 707.228
9.89400 708.308
9.89831 707.028
9.90263 703.406
9.90694 697.487
9.91125 689.352
9.91484 680.951
9.91844 671.154
9.92563 647.724
9.93281 619.836
9.94000 588.383
9.94750 552.772
9.95500 515.371
9.96250 477.202
9.97000 439.195
9.97750 402.148
9.98500 366.712
9.99250 333.379
9.99625 317.612
10.0000 302.486
10.0065 278.024
10.0097 266.527
10.0129 255.567
10.0161 245.074
10.0194 235.107
10.0226 225.627
10.0258 216.622
10.0290 208.055
10.0322 199.966
10.0355 192.313
10.0387 185.080
10.0419 178.231
10.0451 171.791
10.0484 165.722
10.0516 160.005
10.0551 154.091
10.0587 148.578
10.0622 143.412
10.0658 138.601
10.0693 134.098
10.0728 129.907
10.0764 125.987
10.0799 122.341
10.0835 118.932
10.0870 115.763
10.0906 112.802
10.0941 110.051
10.1012 105.097
10.1083 100.811
10.1131 98.2276
10.1180 95.9025
10.1228 93.8072
10.1276 91.9344
10.1325 90.2623
10.1373 88.7861
10.1421 87.4922
10.1470 86.3724
10.1518 85.4183
10.1566 84.6287
10.1615 83.9968
10.1663 83.5229
10.1711 83.2041
10.1760 83.0420
10.1808 83.0372
10.1856 83.1922
10.1927 83.7176
10.1998 84.6116
10.2069 85.8947
10.2140 87.5914
10.2211 89.7298
10.2282 92.3400
10.2353 95.4538
10.2424 99.1023
10.2494 103.314
10.2565 108.113
10.2636 113.515
10.2707 119.525
10.2778 126.134
10.2849 133.316
10.2920 141.023
10.2991 149.185
10.3120 164.865
10.3249 180.943
10.3374 196.005
10.3437 202.985
10.3499 209.415
10.3562 215.159
10.3625 220.092
10.3687 224.100
10.3750 227.082
10.3825 229.212
10.3900 229.694
10.3956 228.953
10.4013 227.280
10.4069 224.695
10.4125 221.249
10.4181 216.989
10.4238 212.000
10.4294 206.347
10.4350 200.138
10.4406 193.472
10.4462 186.434
10.4574 171.643
10.4687 156.471
10.4799 141.579
10.4857 134.060
10.4916 126.819
10.4975 119.886
10.5033 113.294
10.5092 107.052
10.5150 101.196
10.5209 95.7188
10.5268 90.6172
10.5332 85.4651
10.5396 80.7347
10.5460 76.4044
10.5524 72.4554
10.5588 68.8488
10.5651 65.5686
10.5715 62.5774
10.5779 59.8580
10.5838 57.5736
10.5897 55.4783
10.5955 53.5480
10.6014 51.7733
10.6073 50.1339
10.6131 48.6221
10.6190 47.2231
10.6248 45.9262
10.6307 44.7197
10.6366 43.5990
10.6424 42.5541
10.6483 41.5782
10.6542 40.6635
10.6600 39.8075
10.6717 38.2475
10.6803 37.2238
10.6888 36.2818
10.6973 35.4123
10.7059 34.6072
10.7144 33.8597
10.7229 33.1638
10.7315 32.5142
10.7400 31.9071
10.7485 31.3371
10.7570 30.8014
10.7741 29.8215
10.7911 28.9455
10.8082 28.1582
10.8199 27.6607
10.8317 27.1951
10.8434 26.7583
10.8551 26.3478
10.8786 25.5954
10.9020 24.9221
10.9255 24.3153
10.9489 23.7651
10.9724 23.2635
10.9958 22.8037
11.0193 22.3800
11.0427 21.9883
11.0662 21.6244
11.0896 21.2853
11.1131 20.9681
11.1365 20.6709
11.1600 20.3917
11.1834 20.1286
11.2303 19.6450
11.2772 19.2105
11.3241 18.8171
11.3710 18.4589
11.4116 18.1740
11.4521 17.9094
11.4926 17.6624
11.5331 17.4310
11.5736 17.2133
11.6141 17.0081
11.6546 16.8145
11.6951 16.6314
11.7761 16.2931
11.8571 15.9871
11.9382 15.7085
12.0192 15.4536
12.0746 15.2910
12.1300 15.1372
12.2409 14.8526
12.3518 14.5948
12.4626 14.3598
12.5735 14.1444
12.6844 13.9469
12.7952 13.7632
12.9061 13.5923
12.9999 13.4568
13.0937 13.3287
13.1875 13.2074
13.2813 13.0924
13.3751 12.9829
13.4689 12.8787
13.6566 12.6843
13.8442 12.5062
14.0318 12.3425
14.2194 12.1912
14.4070 12.0509
14.5435 11.9551
14.6799 11.8642
14.8164 11.7779
14.9528 11.6959
15.1404 11.5900
15.3280 11.4915
15.5157 11.4006
15.7033 11.3172
15.8909 11.2417
16.0785 11.1748
16.1723 11.1450
16.2661 11.1178
16.3599 11.0934
16.4537 11.0722
16.5646 11.0517
16.6755 11.0366
16.7863 11.0278
16.8972 11.0269
17.0081 11.0352
17.1189 11.0547
17.1744 11.0693
17.2298 11.0877
17.2852 11.1103
17.3407 11.1376
17.4132 11.1815
17.4856 11.2360
17.5581 11.3032
17.6306 11.3854
17.7031 11.4854
17.7394 11.5433
17.7756 11.6071
17.8119 11.6777
17.8481 11.7558
17.8843 11.8422
17.9206 11.9379
17.9675 12.0774
18.0144 12.2372
18.0613 12.4209
18.1082 12.6325
18.1317 12.7506
18.1551 12.8776
18.1786 13.0146
18.2020 13.1626
18.2255 13.3226
18.2489 13.4958
18.2724 13.6836
18.2958 13.8876
18.3257 14.1736
18.3555 14.4929
18.3854 14.8509
18.4152 15.2535
18.4450 15.7088
18.4749 16.2258
18.4898 16.5109
18.5047 16.8158
18.5197 17.1423
18.5346 17.4925
18.5580 18.0968
18.5815 18.7756
18.6049 19.5419
18.6167 19.9628
18.6284 20.4112
18.6401 20.8905
18.6519 21.4030
18.6636 21.9520
18.6753 22.5404
18.6870 23.1732
18.6988 23.8539
18.7105 24.5886
18.7222 25.3820
18.7382 26.5722
18.7542 27.9051
18.7702 29.4050
18.7782 30.2272
18.7862 31.1019
18.7942 32.0362
18.8022 33.0332
18.8102 34.1016
18.8181 35.2459
18.8261 36.4768
18.8341 37.8004
18.8421 39.2306
18.8501 40.7757
18.8560 41.9931
18.8619 43.2851
18.8677 44.6630
18.8736 46.1300
18.8795 47.7000
18.8853 49.3777
18.8912 51.1772
18.8970 53.1111
18.9029 55.1980
18.9088 57.4473
18.9146 59.8813
18.9205 62.5218
18.9264 65.3983
18.9322 68.5292
18.9381 71.9510
18.9439 75.6998
18.9485 78.8549
18.9530 82.2444
18.9575 85.8980
18.9621 89.8413
18.9666 94.1019
18.9711 98.7101
18.9757 103.699
18.9802 109.103
18.9847 114.962
18.9892 121.316
18.9938 128.210
18.9983 135.691
19.0028 143.808
19.0074 152.613
19.0119 162.163
19.0164 172.512
19.0194 179.686
19.0223 187.211
19.0252 195.130
19.0282 203.457
19.0311 212.209
19.0340 221.405
19.0369 231.059
19.0399 241.188
19.0428 251.845
19.0457 262.974
19.0487 274.625
19.0516 286.812
19.0545 299.549
19.0575 312.848
19.0604 326.722
19.0633 341.180
19.0676 363.315
19.0719 386.675
19.0751 405.070
19.0783 424.196
19.0815 444.052
19.0846 464.569
19.0878 485.868
19.0910 507.876
19.0942 530.577
19.0974 553.878
19.1004 575.926
19.1033 598.425
19.1062 621.424
19.1092 644.895
19.1150 693.129
19.1209 742.838
19.1268 793.771
19.1326 845.363
19.1385 897.263
19.1443 948.989
19.1582 1067.61
19.1641 1114.90
19.1699 1159.55
19.1758 1201.06
19.1816 1238.91
19.1903 1287.21
19.1947 1307.48
19.1990 1324.89
19.2043 1342.00
19.2095 1354.59
19.2148 1362.55
19.2200 1365.79
19.2247 1364.66
19.2293 1359.80
19.2363 1345.58
19.2433 1323.39
19.2503 1293.70
19.2573 1257.13
19.2653 1207.91
19.2733 1151.93
19.2812 1090.56
19.2892 1025.21
19.2972 957.274
19.3052 888.111
19.3132 818.975
19.3211 751.070
19.3291 685.190
19.3371 622.214
19.3451 562.760
19.3491 534.499
19.3531 507.271
19.3592 467.268
19.3654 429.931
19.3716 395.161
19.3777 363.049
19.3839 333.436
19.3870 319.583
19.3900 306.333
19.3931 293.630
19.3962 281.544
19.3993 270.014
19.4024 259.024
19.4064 245.563
19.4104 232.941
19.4143 221.117
19.4183 210.053
19.4223 199.707
19.4263 190.040
19.4303 181.013
19.4343 172.608
19.4383 164.745
19.4423 157.412
19.4463 150.572
19.4502 144.193
19.4542 138.243
19.4582 132.693
19.4622 127.515
19.4662 122.692
19.4713 116.996
19.4764 111.771
19.4814 106.972
19.4865 102.567
19.4916 98.5043
19.4967 94.7585
19.5017 91.3000
19.5068 88.1082
19.5119 85.1462
19.5170 82.3989
19.5221 79.8467
19.5271 77.4767
19.5322 75.2639
19.5373 73.1992
19.5424 71.2699
19.5474 69.4684
19.5554 66.8596
19.5634 64.4990
19.5714 62.3578
19.5793 60.4140
19.5873 58.6421
19.5953 57.0271
19.6033 55.5541
19.6113 54.2117
19.6192 52.9854
19.6272 51.8675
19.6352 50.8498
19.6432 49.9262
19.6511 49.0881
19.6591 48.3317
19.6751 47.0463
19.6896 46.1200
19.7041 45.4090
19.7186 44.9029
19.7331 44.5963
19.7491 44.4876
19.7650 44.6234
19.7810 45.0157
19.7890 45.3139
19.7969 45.6839
19.8049 46.1307
19.8129 46.6588
19.8209 47.2738
19.8288 47.9817
19.8368 48.7920
19.8448 49.7134
19.8528 50.7568
19.8608 51.9337
19.8669 52.9469
19.8731 54.0581
19.8793 55.2765
19.8854 56.6104
19.8916 58.0764
19.8978 59.6832
19.9039 61.4517
19.9101 63.3938
19.9163 65.5361
19.9224 67.8944
19.9286 70.5022
19.9347 73.3802
19.9409 76.5708
19.9471 80.1004
19.9532 84.0217
19.9594 88.3677
19.9638 91.7233
19.9681 95.3379
19.9725 99.2321
19.9768 103.428
19.9826 109.530
19.9884 116.266
19.9942 123.697
20.0000 131.886
20.0036 137.380
20.0072 143.208
20.0108 149.387
20.0144 155.932
20.0180 162.860
20.0216 170.187
20.0252 177.930
20.0288 186.103
20.0324 194.722
20.0360 203.799
20.0396 213.349
20.0432 223.383
20.0468 233.911
20.0504 244.942
20.0540 256.483
20.0576 268.505
20.0632 288.178
20.0687 309.049
20.0743 331.135
20.0798 354.402
20.0854 378.795
20.0910 404.239
20.0965 430.639
20.1021 457.875
20.1093 494.156
20.1165 531.242
20.1309 606.049
20.1453 678.474
20.1525 712.395
20.1597 743.984
20.1676 775.546
20.1755 802.936
20.1835 825.517
20.1914 842.732
20.1961 850.173
20.2007 855.570
20.2054 858.879
20.2100 860.072
20.2180 857.179
20.2223 853.027
20.2266 847.112
20.2309 839.452
20.2352 830.138
20.2439 806.757
20.2525 777.641
20.2578 757.462
20.2630 735.660
20.2735 688.033
20.2816 648.485
20.2897 607.413
20.3059 523.793
20.3164 470.609
20.3269 419.683
20.3322 395.320
20.3374 371.831
20.3427 349.286
20.3479 327.780
20.3532 307.271
20.3584 287.825
20.3637 269.455
20.3689 252.191
20.3742 235.958
20.3794 220.795
20.3846 206.619
20.3899 193.449
20.3942 183.344
20.3985 173.870
20.4028 164.975
20.4071 156.636
20.4114 148.807
20.4156 141.499
20.4199 134.665
20.4242 128.278
20.4285 122.300
20.4328 116.733
20.4371 111.536
20.4414 106.687
20.4457 102.151
20.4500 97.9280
20.4543 93.9859
20.4586 90.3047
20.4638 86.1275
20.4691 82.2811
20.4743 78.7358
20.4796 75.4703
20.4848 72.4472
20.4901 69.6503
20.4953 67.0589
20.5005 64.6585
20.5058 62.4230
20.5110 60.3418
20.5163 58.4009
20.5215 56.5913
20.5268 54.8947
20.5320 53.3075
20.5373 51.8146
20.5425 50.4135
20.5502 48.5148
20.5578 46.7717
20.5654 45.1645
20.5730 43.6782
20.5807 42.3001
20.5883 41.0191
20.5959 39.8256
20.6036 38.7112
20.6112 37.6670
20.6188 36.6895
20.6265 35.7714
20.6341 34.9076
20.6417 34.0936
20.6494 33.3254
20.6646 31.9122
20.6751 31.0249
20.6856 30.1998
20.6961 29.4294
20.7066 28.7100
20.7171 28.0357
20.7276 27.4038
20.7381 26.8100
20.7486 26.2511
20.7696 25.2265
20.7905 24.3111
20.8115 23.4893
20.8325 22.7482
20.8478 22.2532
20.8630 21.7919
20.8783 21.3608
20.8936 20.9571
20.9088 20.5782
20.9241 20.2225
20.9394 19.8877
20.9546 19.5722
20.9851 18.9925
21.0157 18.4734
21.0462 18.0058
21.0767 17.5831
21.0977 17.3152
21.1187 17.0641
21.1397 16.8284
21.1607 16.6068
21.2026 16.2011
21.2446 15.8392
21.2866 15.5148
21.3286 15.2229
21.3705 14.9591
21.4125 14.7200
21.4545 14.5023
21.4964 14.3035
21.5384 14.1214
21.5804 13.9543
21.6224 13.8008
21.6643 13.6596
21.7063 13.5296
21.7483 13.4098
21.7903 13.2993
21.8322 13.1975
21.9162 13.0173
22.0001 12.8650
22.0841 12.7375
22.1451 12.6590
22.2291 12.5693
22.3130 12.4998
22.3970 12.4496
22.4809 12.4188
22.5648 12.4075
22.6488 12.4168
22.7327 12.4478
22.8167 12.5028
22.8892 12.5717
22.9617 12.6630
23.0342 12.7798
23.1067 12.9264
23.1429 13.0125
23.1792 13.1081
23.2154 13.2143
23.2517 13.3320
23.2879 13.4626
23.3242 13.6077
23.3604 13.7695
23.3967 13.9500
23.4367 14.1751
23.4768 14.4313
23.5169 14.7247
23.5569 15.0633
23.5770 15.2527
23.5970 15.4576
23.6170 15.6799
23.6371 15.9221
23.6571 16.1871
23.6771 16.4782
23.6972 16.7997
23.7172 17.1571
23.7382 17.5775
23.7592 18.0549
23.7802 18.6031
23.7907 18.9091
23.8011 19.2403
23.8116 19.6006
23.8221 19.9938
23.8326 20.4253
23.8431 20.9015
23.8536 21.4310
23.8641 22.0224
23.8746 22.6882
23.8851 23.4432
23.8913 23.9395
23.8975 24.4768
23.9037 25.0608
23.9099 25.6973
23.9161 26.3923
23.9223 27.1527
23.9285 27.9863
23.9347 28.9014
23.9409 29.9073
23.9471 31.0142
23.9533 32.2328
23.9595 33.5750
23.9657 35.0532
23.9719 36.6806
23.9781 38.4710
23.9843 40.4386
23.9886 41.9149
23.9929 43.4845
23.9972 45.1553
24.0015 46.9323
24.0058 48.8243
24.0101 50.8270
24.0143 52.9487
24.0186 55.1933
24.0229 57.5699
24.0272 60.0702
24.0315 62.7022
24.0358 65.4676
24.0401 68.3744
24.0444 71.4095
24.0530 77.8813
24.0582 82.1001
24.0635 86.5077
24.0740 95.8419
24.0845 105.788
24.0949 116.197
24.1045 125.906
24.1140 135.667
24.1236 145.286
24.1331 154.549
24.1398 160.705
24.1465 166.492
24.1523 171.215
24.1582 175.556
24.1640 179.472
24.1699 182.919
24.1768 186.340
24.1837 189.005
24.1906 190.877
24.1975 191.928
24.2000 192.104
24.2069 192.018
24.2138 191.104
24.2207 189.381
24.2276 186.882
24.2327 184.601
24.2416 179.658
24.2505 173.706
24.2595 166.899
24.2684 159.413
24.2781 150.720
24.2878 141.676
24.2975 132.493
24.3072 123.370
24.3186 112.899
24.3301 103.007
24.3358 98.3287
24.3415 93.8626
24.3473 89.6061
24.3530 85.5836
24.3578 82.3549
24.3627 79.2954
24.3675 76.4059
24.3724 73.6911
24.3772 71.1379
24.3821 68.7542
24.3869 66.5264
24.3918 64.4594
24.3966 62.5395
24.4015 60.7656
24.4063 59.1320
24.4111 57.6353
24.4160 56.2630
24.4208 55.0144
24.4257 53.8779
24.4305 52.8518
24.4393 51.2409
24.4481 49.9312
24.4570 48.8889
24.4658 48.0843
24.4755 47.4385
24.4851 47.0151
24.4948 46.7860
24.5045 46.7282
24.5142 46.8231
24.5239 47.0553
24.5336 47.4125
24.5433 47.8855
24.5530 48.4679
24.5627 49.1536
24.5724 49.9400
24.5821 50.8254
24.5918 51.8106
24.6015 52.8946
24.6111 54.0805
24.6208 55.3714
24.6305 56.7731
24.6402 58.2881
24.6499 59.9239
24.6596 61.6881
24.6693 63.5895
24.6790 65.6380
24.6887 67.8452
24.6984 70.2242
24.7081 72.7929
24.7178 75.5632
24.7274 78.5573
24.7371 81.7982
24.7468 85.3117
24.7565 89.1282
24.7662 93.2827
24.7759 97.8161
24.7882 104.214
24.7944 107.709
24.8006 111.418
24.8067 115.372
24.8129 119.587
24.8191 124.087
24.8252 128.891
24.8314 134.044
24.8376 139.574
24.8437 145.518
24.8499 151.908
24.8561 158.812
24.8622 166.273
24.8684 174.351
24.8746 183.098
24.8794 190.512
24.8843 198.434
24.8891 206.906
24.8940 215.955
24.8988 225.669
24.9037 236.062
24.9085 247.235
24.9133 259.204
24.9182 272.085
24.9230 285.895
24.9279 300.767
24.9327 316.719
24.9376 333.901
24.9424 352.328
24.9473 372.170
24.9521 393.438
24.9561 412.046
24.9600 431.710
24.9640 452.584
24.9680 474.619
24.9719 497.982
24.9759 522.612
24.9799 548.688
24.9838 576.133
24.9878 605.137
24.9918 635.605
24.9957 667.738
24.9997 701.419
25.0037 736.858
25.0076 773.913
25.0116 812.800
25.0155 853.348
25.0204 905.428
25.0252 960.186
25.0301 1017.62
25.0349 1077.58
25.0398 1140.27
25.0446 1205.37
25.0495 1273.04
25.0543 1342.88
25.0640 1489.05
25.0737 1642.31
25.0834 1800.65
25.0931 1961.61
25.1125 2279.70
25.1222 2430.00
25.1318 2569.82
25.1412 2691.38
25.1505 2796.84
25.1599 2883.74
25.1692 2949.60
25.1744 2976.59
25.1796 2996.25
25.1848 3008.46
25.1900 3013.10
25.1930 3012.34
25.1978 3005.81
25.2027 2992.81
25.2075 2973.38
25.2123 2947.75
25.2220 2878.55
25.2317 2787.36
25.2403 2689.48
25.2489 2578.27
25.2575 2456.07
25.2661 2325.51
25.2748 2187.14
25.2836 2045.27
25.3010 1759.66
25.3097 1620.05
25.3184 1485.08
25.3271 1355.80
25.3358 1233.57
25.3434 1134.06
25.3509 1040.73
25.3584 953.507
25.3659 872.699
25.3735 798.036
25.3772 763.055
25.3810 729.575
25.3848 697.484
25.3885 666.918
25.3923 637.755
25.3960 609.956
25.4004 579.374
25.4048 550.504
25.4091 523.277
25.4135 497.679
25.4178 473.521
25.4222 450.841
25.4265 429.465
25.4309 409.419
25.4353 390.542
25.4396 372.814
25.4440 356.167
25.4483 340.572
25.4527 325.897
25.4570 312.148
25.4614 299.207
25.4657 287.080
25.4705 274.645
25.4753 263.047
25.4800 252.178
25.4848 242.028
25.4895 232.502
25.4943 223.593
25.4990 215.235
25.5038 207.387
25.5085 199.996
25.5133 193.058
25.5180 186.524
25.5228 180.364
25.5275 174.538
25.5323 169.045
25.5418 158.932
25.5505 150.556
25.5592 142.945
25.5679 135.990
25.5767 129.628
25.5854 123.777
25.5941 118.391
25.6028 113.414
25.6115 108.803
25.6202 104.516
25.6289 100.530
25.6377 96.8080
25.6464 93.3328
25.6551 90.0749
25.6638 87.0223
25.6725 84.1539
25.6812 81.4545
25.6899 78.9076
25.6986 76.5068
25.7161 72.0890
25.7335 68.1251
25.7509 64.5549
25.7684 61.3226
25.7858 58.3872
25.8032 55.7124
25.8206 53.2687
25.8365 51.2223
25.8523 49.3282
25.8682 47.5701
25.8840 45.9350
25.8999 44.4103
25.9157 42.9879
25.9315 41.6578
25.9474 40.4121
25.9632 39.2429
25.9791 38.1453
25.9949 37.1129
26.0107 36.1407
26.0266 35.2240
26.0424 34.3587
26.0741 32.7676
26.0915 31.9640
26.1090 31.2065
26.1438 29.8169
26.1787 28.5751
26.2135 27.4626
26.2484 26.4633
26.2832 25.5651
26.3181 24.7575
26.3529 24.0331
26.3815 23.4981
26.4100 23.0134
26.4385 22.5786
26.4670 22.1955
26.4955 21.8685
26.5241 21.6072
26.5383 21.5065
26.5526 21.4299
26.5668 21.3824
26.5811 21.3700
26.5993 21.4189
26.6084 21.4771
26.6175 21.5625
26.6266 21.6794
26.6357 21.8324
26.6449 22.0271
26.6540 22.2694
26.6631 22.5657
26.6722 22.9230
26.6813 23.3484
26.6904 23.8492
26.6995 24.4323
26.7086 25.1043
26.7177 25.8707
26.7268 26.7357
26.7352 27.6139
26.7435 28.5766
26.7518 29.6220
26.7601 30.7449
26.7684 31.9418
26.7767 33.2008
26.7934 35.8633
26.8108 38.7419
26.8282 41.5311
26.8409 43.3842
26.8472 44.2268
26.8536 44.9985
26.8621 45.9072
26.8705 46.6541
26.8790 47.2221
26.8875 47.5972
26.8937 47.7452
26.9000 47.7808
26.9082 47.6577
26.9163 47.3446
26.9245 46.8474
26.9326 46.1767
26.9376 45.6828
26.9452 44.8214
26.9529 43.8425
26.9605 42.7607
26.9681 41.5930
26.9835 39.0429
26.9989 36.3601
27.0136 33.7948
27.0283 31.3280
27.0356 30.1544
27.0430 29.0326
27.0503 27.9649
27.0577 26.9583
27.0643 26.0998
27.0710 25.2932
27.0776 24.5388
27.0842 23.8370
27.0909 23.1848
27.0975 22.5816
27.1042 22.0256
27.1108 21.5152
27.1175 21.0464
27.1241 20.6174
27.1308 20.2255
27.1374 19.8684
27.1441 19.5425
27.1507 19.2461
27.1574 18.9758
27.1640 18.7299
27.1738 18.4062
27.1836 18.1234
27.1934 17.8755
27.2032 17.6575
27.2130 17.4647
27.2228 17.2934
27.2424 17.0028
27.2620 16.7655
27.2816 16.5676
27.3011 16.3995
27.3207 16.2545
27.3599 16.0162
27.3991 15.8288
27.4383 15.6789
27.4775 15.5584
27.5390 15.4172
27.6006 15.3251
27.6622 15.2759
27.7238 15.2663
27.7853 15.2950
27.8469 15.3622
27.9085 15.4692
27.9700 15.6184
28.0316 15.8132
28.0932 16.0582
28.1548 16.3590
28.2163 16.7230
28.2779 17.1591
28.3395 17.6787
28.3703 17.9740
28.4010 18.2956
28.4318 18.6459
28.4626 19.0272
28.4962 19.4824
28.5298 19.9822
28.5634 20.5317
28.5970 21.1360
28.6361 21.9191
28.6753 22.7970
28.7145 23.7838
28.7537 24.8963
28.7929 26.1551
28.8321 27.5839
28.8516 28.3711
28.8712 29.2124
28.8908 30.1124
28.9104 31.0763
28.9412 32.7348
28.9720 34.5920
29.0028 36.6792
29.0182 37.8201
29.0336 39.0332
29.0490 40.3254
29.0644 41.7015
29.0797 43.1698
29.0951 44.7385
29.1105 46.4176
29.1259 48.2154
29.1413 50.1441
29.1567 52.2167
29.1777 55.3034
29.1987 58.7259
29.2197 62.5367
29.2302 64.6072
29.2407 66.7964
29.2512 69.1183
29.2617 71.5789
29.2722 74.1947
29.2827 76.9737
29.2932 79.9359
29.3036 83.0915
29.3141 86.4649
29.3246 90.0697
29.3400 95.8352
29.3477 98.9519
29.3554 102.236
29.3631 105.709
29.3708 109.376
29.3785 113.264
29.3862 117.380
29.3939 121.754
29.4016 126.405
29.4093 131.356
29.4170 136.628
29.4247 142.266
29.4324 148.291
29.4401 154.759
29.4478 161.696
29.4544 168.119
29.4611 174.974
29.4677 182.302
29.4744 190.137
29.4810 198.553
29.4877 207.597
29.4943 217.331
29.5010 227.811
29.5076 239.148
29.5143 251.414
29.5209 264.709
29.5275 279.117
29.5342 294.804
29.5408 311.881
29.5475 330.493
29.5541 350.770
29.5580 363.368
29.5618 376.630
29.5657 390.591
29.5695 405.292
29.5734 420.773
29.5772 437.078
29.5811 454.250
29.5849 472.288
29.5888 491.332
29.5926 511.385
29.5965 532.498
29.6003 554.662
29.6042 578.046
29.6080 602.645
29.6119 628.514
29.6157 655.635
29.6196 684.202
29.6234 714.202
29.6273 745.687
29.6311 778.712
29.6350 813.329
29.6388 849.587
29.6427 887.536
29.6465 927.117
29.6503 968.579
29.6542 1011.86
29.6580 1057.00
29.6619 1103.91
29.6696 1203.73
29.6773 1311.22
29.6839 1410.50
29.6906 1515.61
29.6972 1626.42
29.7039 1742.57
29.7105 1864.11
29.7172 1990.48
29.7238 2121.21
29.7305 2255.51
29.7458 2577.29
29.7612 2904.95
29.7766 3225.81
29.7843 3379.10
29.7920 3524.92
29.8006 3676.39
29.8091 3813.98
29.8177 3935.29
29.8263 4038.05
29.8347 4119.61
29.8431 4179.92
29.8516 4217.90
29.8600 4232.86
29.8634 4232.34
29.8689 4223.54
29.8744 4205.03
29.8798 4176.89
29.8853 4139.46
29.8908 4092.91
29.8963 4037.79
29.9073 3903.40
29.9161 3773.43
29.9250 3627.36
29.9338 3467.78
29.9427 3297.52
29.9602 2940.13
29.9778 2573.31
29.9874 2375.96
29.9969 2184.06
30.0065 1999.50
30.0160 1823.94
30.0248 1671.89
30.0336 1529.13
30.0423 1396.09
30.0511 1272.92
30.0555 1214.97
30.0599 1159.60
30.0643 1106.52
30.0687 1055.93
30.0730 1007.55
30.0774 961.556
30.0818 917.772
30.0862 876.134
30.0906 836.486
30.0950 798.938
30.0993 763.244
30.1037 729.492
30.1081 697.451
30.1125 667.190
30.1169 638.558
30.1213 611.478
30.1256 585.819
30.1300 561.624
30.1344 538.710
30.1388 517.110
30.1432 496.658
30.1476 477.381
30.1519 459.167
30.1563 441.955
30.1627 418.558
30.1691 396.995
30.1755 377.107
30.1818 358.774
30.1882 341.805
30.1946 326.130
30.2010 311.585
30.2073 298.113
30.2137 285.577
30.2201 273.915
30.2265 263.049
30.2328 252.923
30.2392 243.443
30.2456 234.582
30.2520 226.260
30.2583 218.457
30.2671 208.465
30.2759 199.256
30.2847 190.747
30.2934 182.864
30.3022 175.545
30.3110 168.733
30.3197 162.379
30.3285 156.449
30.3373 150.890
30.3460 145.676
30.3548 140.778
30.3636 136.175
30.3723 131.832
30.3811 127.734
30.3986 120.205
30.4082 116.429
30.4178 112.870
30.4369 106.325
30.4560 100.456
30.4752 95.1743
30.4943 90.4027
30.5134 86.0785
30.5325 82.1483
30.5517 78.5690
30.5692 75.5593
30.5867 72.7855
30.6043 70.2255
30.6218 67.8616
30.6394 65.6743
30.6569 63.6518
30.6744 61.7789
30.6920 60.0469
30.7095 58.4440
30.7270 56.9638
30.7446 55.5974
30.7621 54.3402
30.7796 53.1854
30.7972 52.1302
30.8147 51.1697
30.8322 50.3026
30.8514 49.4600
30.8705 48.7244
30.8896 48.0960
30.9088 47.5760
30.9343 47.0563
30.9598 46.7459
30.9853 46.6622
30.9980 46.7130
31.0108 46.8308
31.0235 47.0207
31.0363 47.2880
31.0490 47.6396
31.0618 48.0836
31.0746 48.6299
31.0873 49.2890
31.1001 50.0748
31.1128 51.0035
31.1216 51.7353
31.1303 52.5517
31.1391 53.4611
31.1479 54.4739
31.1567 55.6016
31.1654 56.8577
31.1742 58.2583
31.1830 59.8199
31.1917 61.5678
31.2005 63.5259
31.2093 65.7241
31.2180 68.1945
31.2268 70.9842
31.2356 74.1387
31.2443 77.7145
31.2531 81.7725
31.2583 84.4365
31.2635 87.3095
31.2686 90.4154
31.2738 93.7749
31.2790 97.4103
31.2842 101.346
31.2894 105.607
31.2945 110.221
31.2997 115.219
31.3049 120.630
31.3101 126.489
31.3153 132.830
31.3204 139.690
31.3256 147.107
31.3308 155.121
31.3360 163.773
31.3416 173.855
31.3471 184.779
31.3527 196.600
31.3583 209.371
31.3639 223.146
31.3695 237.977
31.3750 253.914
31.3806 271.003
31.3838 281.307
31.3870 292.009
31.3902 303.115
31.3934 314.632
31.3966 326.565
31.3998 338.918
31.4061 364.857
31.4125 392.547
31.4189 421.900
31.4253 452.990
31.4316 485.678
31.4360 509.130
31.4404 533.251
31.4448 558.116
31.4492 583.574
31.4579 636.311
31.4667 691.027
31.4747 742.025
31.4827 793.760
31.4986 897.240
31.5074 952.939
31.5161 1006.55
31.5249 1057.22
31.5337 1104.13
31.5441 1154.10
31.5546 1196.17
31.5621 1220.86
31.5696 1240.54
31.5771 1254.97
31.5846 1263.95
31.5900 1266.99
31.5982 1265.97
31.6064 1258.30
31.6145 1244.15
31.6227 1223.76
31.6309 1197.55
31.6374 1172.64
31.6440 1144.61
31.6505 1113.71
31.6571 1080.28
31.6635 1045.17
31.6700 1008.27
31.6829 930.448
31.6928 868.033
31.7028 804.994
31.7128 742.280
31.7227 680.965
31.7356 604.834
31.7421 568.556
31.7485 533.653
31.7550 500.229
31.7614 468.362
31.7679 438.108
31.7743 409.540
31.7808 382.584
31.7872 357.278
31.7937 333.601
31.8001 311.549
31.8065 291.005
31.8130 271.949
31.8194 254.316
31.8259 238.060
31.8320 223.703
31.8382 210.467
31.8444 198.239
31.8505 186.994
31.8567 176.627
31.8628 167.109
31.8690 158.344
31.8751 150.302
31.8813 142.900
31.8874 136.106
31.8936 129.849
31.8997 124.102
31.9059 118.800
31.9121 113.922
31.9182 109.414
31.9244 105.256
31.9308 101.228
31.9373 97.5095
31.9437 94.0704
31.9502 90.8885
31.9566 87.9299
31.9631 85.1780
31.9695 82.6134
31.9759 80.2223
31.9824 77.9815
31.9888 75.8812
31.9953 73.9086
32.0017 72.0556
32.0082 70.3064
32.0146 68.6550
32.0275 65.6167
32.0381 63.3570
32.0486 61.2788
32.0592 59.3592
32.0697 57.5805
32.0803 55.9274
32.0908 54.3869
32.1014 52.9479
32.1119 51.6006
32.1225 50.3352
32.1330 49.1466
32.1436 48.0271
32.1541 46.9707
32.1647 45.9724
32.1752 45.0273
32.1963 43.2811
32.2092 42.2982
32.2221 41.3727
32.2350 40.4999
32.2479 39.6759
32.2737 38.1568
32.2995 36.7890
32.3253 35.5506
32.3511 34.4250
32.3769 33.3969
32.4027 32.4542
32.4250 31.7007
32.4472 30.9977
32.4695 30.3398
32.4918 29.7231
32.5141 29.1434
32.5363 28.5978
32.5586 28.0828
32.5809 27.5963
32.6032 27.1355
32.6254 26.6988
32.6700 25.8897
32.7145 25.1561
32.7591 24.4880
32.7872 24.0955
32.8154 23.7237
32.8716 23.0360
32.9279 22.4133
32.9842 21.8466
33.0405 21.3285
33.0967 20.8529
33.1530 20.4145
33.2093 20.0086
33.2609 19.6618
33.3124 19.3368
33.3640 19.0315
33.4156 18.7444
33.4672 18.4736
33.5188 18.2181
33.5704 17.9764
33.6219 17.7474
33.6735 17.5303
33.7251 17.3242
33.8283 16.9420
33.9314 16.5957
34.0346 16.2814
34.1096 16.0711
34.1847 15.8753
34.2597 15.6932
34.3347 15.5244
34.4238 15.3408
34.5129 15.1755
34.6020 15.0289
34.6911 14.9020
34.7802 14.7964
34.8248 14.7524
34.8693 14.7146
34.9139 14.6837
34.9584 14.6602
35.0030 14.6451
35.0475 14.6390
35.0991 14.6449
35.1507 14.6665
35.2023 14.7061
35.2539 14.7670
35.3055 14.8528
35.3313 14.9066
35.3570 14.9685
35.3828 15.0394
35.4086 15.1202
35.4344 15.2119
35.4602 15.3159
35.4930 15.4680
35.5259 15.6454
35.5587 15.8522
35.5915 16.0933
35.6243 16.3749
35.6408 16.5330
35.6572 16.7041
35.6736 16.8896
35.6900 17.0906
35.7064 17.3086
35.7228 17.5454
35.7486 17.9605
35.7744 18.4356
35.7873 18.6991
35.8002 18.9817
35.8131 19.2856
35.8260 19.6123
35.8389 19.9646
35.8518 20.3448
35.8647 20.7556
35.8776 21.2001
35.8905 21.6827
35.9034 22.2067
35.9163 22.7781
35.9292 23.4016
35.9456 24.2825
35.9620 25.2756
35.9702 25.8210
35.9784 26.4020
35.9866 27.0234
35.9948 27.6876
36.0030 28.4005
36.0112 29.1665
36.0194 29.9911
36.0276 30.8798
36.0358 31.8421
36.0440 32.8842
36.0523 34.0185
36.0605 35.2535
36.0669 36.3050
36.0734 37.4347
36.0798 38.6508
36.0863 39.9620
36.0927 41.3785
36.0992 42.9113
36.1056 44.5729
36.1120 46.3741
36.1185 48.3357
36.1249 50.4721
36.1314 52.8020
36.1378 55.3417
36.1443 58.1218
36.1507 61.1631
36.1572 64.4926
36.1636 68.1335
36.1683 71.0019
36.1730 74.0676
36.1777 77.3441
36.1824 80.8454
36.1871 84.5865
36.1918 88.5826
36.1965 92.8497
36.2011 97.4043
36.2058 102.263
36.2105 107.444
36.2152 112.964
36.2199 118.841
36.2246 125.093
36.2293 131.738
36.2340 138.793
36.2387 146.261
36.2451 157.284
36.2516 169.191
36.2580 182.023
36.2644 195.793
36.2709 210.574
36.2773 226.370
36.2838 243.197
36.2902 261.037
36.2967 279.943
36.3031 299.877
36.3096 320.816
36.3160 342.723
36.3225 365.551
36.3289 389.234
36.3354 413.696
36.3418 438.805
36.3494 469.250
36.3571 500.299
36.3647 531.723
36.3723 563.267
36.3852 616.157
36.3981 667.103
36.4110 714.651
36.4174 736.653
36.4239 757.223
36.4310 777.968
36.4381 796.544
36.4452 812.745
36.4523 826.393
36.4592 837.132
36.4661 845.161
36.4731 850.394
36.4800 852.775
36.4883 851.847
36.4967 846.807
36.5050 837.759
36.5133 824.837
36.5216 808.288
36.5316 784.016
36.5416 755.477
36.5516 723.237
36.5615 688.034
36.5717 649.614
36.5820 609.543
36.5922 568.558
36.6024 527.348
36.6126 486.544
36.6228 446.702
36.6330 408.294
36.6432 371.736
36.6497 349.523
36.6562 328.224
36.6627 307.882
36.6692 288.557
36.6757 270.207
36.6822 252.871
36.6887 236.545
36.6952 221.241
36.7003 209.879
36.7054 199.131
36.7105 188.940
36.7156 179.329
36.7207 170.243
36.7258 161.698
36.7309 153.640
36.7360 146.080
36.7411 138.967
36.7462 132.306
36.7513 126.050
36.7564 120.201
36.7616 114.716
36.7667 109.593
36.7718 104.802
36.7769 100.323
36.7820 96.1281
36.7871 92.2151
36.7922 88.5510
36.7973 85.1328
36.8024 81.9311
36.8075 78.9430
36.8126 76.1421
36.8177 73.5258
36.8228 71.0709
36.8279 68.7750
36.8330 66.6179
36.8381 64.5974
36.8432 62.6959
36.8483 60.9117
36.8534 59.2295
36.8585 57.6480
36.8683 54.8698
36.8780 52.3792
36.8878 50.1329
36.8975 48.1029
36.9073 46.2573
36.9170 44.5762
36.9268 43.0361
36.9365 41.6231
36.9462 40.3195
36.9560 39.1157
36.9657 37.9985
36.9755 36.9609
36.9852 35.9927
36.9950 35.0892
37.0047 34.2432
37.0144 33.4495
37.0247 32.6685
37.0349 31.9351
37.0451 31.2453
37.0553 30.5953
37.0655 29.9818
37.0757 29.4020
37.0961 28.3332
37.1165 27.3708
37.1370 26.5003
37.1574 25.7096
37.1778 24.9889
37.1945 24.4447
37.2112 23.9375
37.2279 23.4637
37.2446 23.0206
37.2613 22.6049
37.2780 22.2146
37.2947 21.8472
37.3114 21.5012
37.3282 21.1744
37.3449 20.8655
37.3783 20.2964
37.4117 19.7840
37.4451 19.3206
37.4655 19.0587
37.4859 18.8115
37.5268 18.3563
37.5676 17.9472
37.6084 17.5780
37.6493 17.2432
37.6901 16.9385
37.7310 16.6602
37.7718 16.4052
37.8089 16.1913
37.8460 15.9927
37.8832 15.8079
37.9203 15.6357
37.9574 15.4750
37.9945 15.3248
38.0317 15.1844
38.0688 15.0530
38.1430 14.8149
38.2173 14.6062
38.2915 14.4238
38.3658 14.2656
38.4066 14.1882
38.4474 14.1175
38.4883 14.0533
38.5291 13.9956
38.5700 13.9444
38.6108 13.8998
38.6516 13.8618
38.6925 13.8307
38.7333 13.8068
38.7741 13.7904
38.8150 13.7820
38.8558 13.7819
38.8966 13.7910
38.9375 13.8100
38.9783 13.8398
39.0191 13.8815
39.0600 13.9366
39.1008 14.0066
39.1417 14.0936
39.1825 14.1999
39.2233 14.3283
39.2642 14.4822
39.3050 14.6656
39.3458 14.8838
39.3830 15.1175
39.4201 15.3909
39.4387 15.5448
39.4572 15.7113
39.4758 15.8917
39.4943 16.0874
39.5129 16.2999
39.5315 16.5307
39.5500 16.7818
39.5686 17.0554
39.5872 17.3539
39.6057 17.6801
39.6243 18.0372
39.6428 18.4291
39.6633 18.9054
39.6837 19.4357
39.7041 20.0279
39.7245 20.6917
39.7449 21.4386
39.7654 22.2830
39.7756 22.7471
39.7858 23.2424
39.7960 23.7719
39.8062 24.3382
39.8164 24.9462
39.8266 25.5996
39.8368 26.3032
39.8470 27.0625
39.8572 27.8838
39.8674 28.7747
39.8777 29.7437
39.8879 30.7998
39.8981 31.9569
39.9083 33.2280
39.9185 34.6295
39.9287 36.1811
39.9389 37.9058
39.9491 39.8312
39.9593 41.9899
39.9695 44.4181
39.9751 45.8745
39.9807 47.4338
39.9862 49.1049
39.9918 50.8978
39.9974 52.8235
40.0029 54.8937
40.0085 57.1212
40.0141 59.5153
40.0196 62.0995
40.0252 64.8857
40.0308 67.8912
40.0364 71.1344
40.0419 74.6348
40.0475 78.4134
40.0531 82.4923
40.0586 86.8866
40.0637 91.2306
40.0688 95.8777
40.0739 100.867
40.0790 106.199
40.0842 111.918
40.0893 118.023
40.0944 124.560
40.0995 131.527
40.1046 138.975
40.1097 146.896
40.1148 155.345
40.1199 164.311
40.1250 173.850
40.1301 183.947
40.1352 194.638
40.1403 205.941
40.1440 214.558
40.1477 223.513
40.1547 241.269
40.1616 260.234
40.1686 280.448
40.1756 301.916
40.1825 324.628
40.1895 348.562
40.1964 373.676
40.2034 399.916
40.2085 419.855
40.2136 440.286
40.2238 482.608
40.2340 526.489
40.2442 571.449
40.2591 637.599
40.2739 702.846
40.2842 746.036
40.2944 786.999
40.3046 824.976
40.3148 859.201
40.3210 877.981
40.3272 894.974
40.3335 910.046
40.3397 923.078
40.3473 936.035
40.3549 945.667
40.3624 951.859
40.3700 954.539
40.3783 953.429
40.3866 948.130
40.3948 938.730
40.4031 925.373
40.4114 908.283
40.4195 887.968
40.4277 864.555
40.4358 838.342
40.4440 809.674
40.4542 770.619
40.4645 729.046
40.4748 685.634
40.4850 641.212
40.5056 551.925
40.5158 508.330
40.5261 466.113
40.5373 422.084
40.5485 380.607
40.5541 360.924
40.5597 341.982
40.5653 323.801
40.5709 306.425
40.5760 291.135
40.5811 276.533
40.5863 262.586
40.5914 249.289
40.5965 236.634
40.6017 224.610
40.6068 213.203
40.6119 202.398
40.6170 192.178
40.6222 182.525
40.6273 173.417
40.6324 164.836
40.6376 156.759
40.6427 149.164
40.6478 142.030
40.6530 135.334
40.6581 129.042
40.6632 123.157
40.6684 117.645
40.6735 112.484
40.6786 107.645
40.6838 103.127
40.6889 98.9013
40.6940 94.9490
40.6992 91.2457
40.7043 87.7891
40.7094 84.5557
40.7145 81.5304
40.7197 78.6937
40.7248 76.0430
40.7299 73.5601
40.7351 71.2330
40.7439 67.5451
40.7528 64.2418
40.7617 61.2695
40.7705 58.5947
40.7794 56.1759
40.7883 53.9878
40.7971 52.0008
40.8060 50.1918
40.8149 48.5391
40.8237 47.0289
40.8326 45.6446
40.8414 44.3732
40.8503 43.2026
40.8592 42.1257
40.8680 41.1331
40.8769 40.2179
40.8862 39.3311
40.8955 38.5176
40.9049 37.7725
40.9142 37.0917
40.9235 36.4720
40.9329 35.9110
40.9422 35.4069
40.9515 34.9587
40.9609 34.5661
40.9702 34.2294
40.9795 33.9499
40.9888 33.7296
40.9982 33.5715
41.0075 33.4796
41.0168 33.4590
41.0262 33.5159
41.0336 33.6226
41.0411 33.7883
41.0486 34.0187
41.0560 34.3193
41.0635 34.6976
41.0710 35.1601
41.0784 35.7155
41.0859 36.3729
41.0933 37.1435
41.1008 38.0358
41.1083 39.0639
41.1157 40.2372
41.1232 41.5718
41.1307 43.0776
41.1381 44.7700
41.1456 46.6631
41.1507 48.0915
41.1559 49.6232
41.1610 51.2653
41.1661 53.0221
41.1713 54.9014
41.1764 56.8997
41.1815 59.0240
41.1866 61.2774
41.1918 63.6675
41.1969 66.1872
41.2020 68.8425
41.2072 71.6347
41.2123 74.5698
41.2174 77.6361
41.2277 84.1732
41.2389 91.9028
41.2501 100.198
41.2613 109.001
41.2725 118.203
41.2828 126.902
41.2930 135.722
41.3033 144.548
41.3135 153.243
41.3303 166.813
41.3387 173.113
41.3471 178.973
41.3490 180.212
41.3541 183.474
41.3593 186.522
41.3695 191.904
41.3765 194.979
41.3834 197.540
41.3904 199.566
41.3974 201.036
41.4037 201.876
41.4100 202.237
41.4170 202.076
41.4239 201.334
41.4309 200.017
41.4379 198.140
41.4455 195.446
41.4532 192.129
41.4609 188.231
41.4685 183.797
41.4768 178.483
41.4851 172.681
41.4933 166.463
41.5016 159.908
41.5181 146.096
41.5346 131.847
41.5466 121.522
41.5586 111.449
41.5707 101.767
41.5827 92.6127
41.5909 86.6672
41.5992 81.0321
41.6075 75.7219
41.6157 70.7450
41.6240 66.1043
41.6322 61.7980
41.6405 57.8198
41.6488 54.1601
41.6544 51.8380
41.6600 49.6577
41.6657 47.6101
41.6713 45.6899
41.6769 43.8884
41.6826 42.2064
41.6882 40.6348
41.6938 39.1678
41.6995 37.7973
41.7051 36.5223
41.7107 35.3347
41.7163 34.2292
41.7220 33.2002
41.7276 32.2428
41.7332 31.3520
41.7389 30.5232
41.7471 29.4086
41.7554 28.4060
41.7637 27.5019
41.7719 26.6854
41.7802 25.9466
41.7884 25.2766
41.7967 24.6675
41.8050 24.1123
41.8132 23.6048
41.8215 23.1394
41.8297 22.7114
41.8380 22.3166
41.8463 21.9512
41.8545 21.6120
41.8628 21.2962
41.8710 21.0013
41.8853 20.5351
41.8996 20.1158
41.9138 19.7361
41.9281 19.3902
41.9424 19.0731
41.9566 18.7809
41.9709 18.5107
41.9852 18.2599
41.9994 18.0260
42.0137 17.8072
42.0280 17.6021
42.0422 17.4094
42.0708 17.0558
42.0993 16.7392
42.1218 16.5112
42.1444 16.3000
42.1669 16.1037
42.1894 15.9207
42.2120 15.7494
42.2345 15.5887
42.2795 15.2950
42.3246 15.0326
42.3696 14.7964
42.4147 14.5822
42.4598 14.3869
42.4928 14.2541
42.5258 14.1293
42.5919 13.9005
42.6580 13.6958
42.7241 13.5116
42.7902 13.3451
42.8562 13.1941
42.9223 13.0570
42.9884 12.9325
43.0365 12.8493
43.0845 12.7720
43.1506 12.6751
43.2167 12.5889
43.2828 12.5134
43.3489 12.4492
43.4149 12.3970
43.4810 12.3582
43.5471 12.3350
43.5801 12.3301
43.6132 12.3303
43.6552 12.3390
43.6973 12.3585
43.7393 12.3912
43.7814 12.4397
43.8024 12.4711
43.8234 12.5080
43.8445 12.5511
43.8655 12.6013
43.8865 12.6596
43.9075 12.7271
43.9286 12.8055
43.9496 12.8965
43.9751 13.0274
43.9879 13.1028
44.0007 13.1859
44.0134 13.2778
44.0262 13.3797
44.0390 13.4932
44.0517 13.6199
44.0645 13.7624
44.0773 13.9234
44.0900 14.1063
44.1028 14.3155
44.1156 14.5568
44.1283 14.8368
44.1347 14.9942
44.1411 15.1646
44.1475 15.3495
44.1539 15.5506
44.1621 15.8379
44.1704 16.1597
44.1786 16.5210
44.1869 16.9274
44.1952 17.3853
44.2034 17.9019
44.2117 18.4853
44.2199 19.1444
44.2241 19.5054
44.2282 19.8891
44.2323 20.2969
44.2365 20.7303
44.2406 21.1906
44.2447 21.6795
44.2488 22.1987
44.2530 22.7496
44.2571 23.3341
44.2612 23.9539
44.2654 24.6108
44.2695 25.3066
44.2736 26.0433
44.2778 26.8225
44.2819 27.6464
44.2860 28.5168
44.2902 29.4378
44.2943 30.4071
44.2984 31.4285
44.3025 32.5040
44.3067 33.6354
44.3108 34.8244
44.3149 36.0728
44.3191 37.3822
44.3232 38.7541
44.3273 40.1899
44.3356 43.2584
44.3438 46.5961
44.3521 50.2088
44.3600 53.9190
44.3679 57.8762
44.3758 62.0860
44.3836 66.5292
44.3915 71.2044
44.3994 76.0826
44.4073 81.1546
44.4152 86.3812
44.4317 97.7182
44.4482 109.274
44.4647 120.631
44.4730 126.089
44.4813 131.319
44.4884 135.611
44.4955 139.642
44.5027 143.383
44.5098 146.797
44.5181 150.301
44.5263 153.274
44.5379 156.486
44.5437 157.646
44.5495 158.496
44.5600 159.236
44.5674 159.129
44.5748 158.510
44.5808 157.619
44.5869 156.395
44.5930 154.845
44.5990 152.983
44.6088 149.357
44.6186 145.028
44.6293 139.600
44.6400 133.551
44.6498 127.570
44.6596 121.280
44.6791 108.150
44.6987 94.9027
44.7085 88.4441
44.7183 82.1930
44.7267 76.9907
44.7352 72.0158
44.7436 67.2797
44.7521 62.8113
44.7606 58.6122
44.7690 54.6993
44.7775 51.0698
44.7859 47.7221
44.7917 45.5882
44.7975 43.5851
44.8033 41.7027
44.8090 39.9439
44.8148 38.2987
44.8206 36.7685
44.8264 35.3457
44.8322 34.0257
44.8380 32.8015
44.8437 31.6725
44.8495 30.6316
44.8553 29.6737
44.8611 28.7927
44.8669 27.9868
44.8727 27.2499
44.8784 26.5775
44.8856 25.8315
44.8927 25.1694
44.8998 24.5841
44.9069 24.0696
44.9140 23.6185
44.9211 23.2259
44.9283 22.8868
44.9354 22.5970
44.9452 22.2702
44.9550 22.0188
44.9647 21.8349
44.9745 21.7122
44.9843 21.6450
44.9941 21.6295
45.0039 21.6627
45.0137 21.7422
45.0235 21.8672
45.0333 22.0370
45.0430 22.2522
45.0528 22.5137
45.0626 22.8240
45.0724 23.1858
45.0822 23.6029
45.0920 24.0793
45.1004 24.5442
45.1089 25.0618
45.1173 25.6380
45.1258 26.2784
45.1342 26.9909
45.1427 27.7815
45.1511 28.6596
45.1596 29.6353
45.1681 30.7208
45.1765 31.9262
45.1850 33.2665
45.1934 34.7569
45.2019 36.4164
45.2103 38.2596
45.2188 40.3082
45.2272 42.5840
45.2321 44.0167
45.2370 45.5351
45.2419 47.1501
45.2468 48.8602
45.2517 50.6774
45.2566 52.5995
45.2615 54.6355
45.2664 56.7905
45.2713 59.0747
45.2762 61.4841
45.2811 64.0339
45.2859 66.7189
45.2908 69.5552
45.2957 72.5362
45.3006 75.6723
45.3055 78.9678
45.3104 82.4344
45.3153 86.0616
45.3202 89.8678
45.3251 93.8403
45.3349 102.326
45.3447 111.520
45.3545 121.442
45.3642 132.072
45.3740 143.383
45.3838 155.317
45.3945 169.005
45.4052 183.261
45.4158 197.983
45.4265 212.988
45.4372 228.127
45.4479 243.172
45.4577 256.721
45.4674 269.845
45.4772 282.365
45.4870 294.087
45.4968 304.828
45.5065 314.446
45.5160 322.575
45.5255 329.364
45.5341 334.298
45.5428 337.973
45.5514 340.351
45.5600 341.394
45.5669 341.262
45.5738 340.271
45.5807 338.432
45.5876 335.762
45.5977 330.394
45.6078 323.404
45.6179 314.916
45.6281 305.083
45.6398 292.161
45.6516 277.943
45.6634 262.738
45.6752 246.869
45.6869 230.609
45.6987 214.258
45.7105 198.071
45.7223 182.289
45.7341 167.076
45.7458 152.612
45.7576 139.000
45.7635 132.535
45.7694 126.322
45.7801 115.636
45.7854 110.607
45.7908 105.785
45.7961 101.160
45.8015 96.7477
45.8068 92.5365
45.8122 88.5228
45.8175 84.6956
45.8229 81.0646
45.8282 77.6171
45.8336 74.3477
45.8390 71.2448
45.8443 68.3137
45.8497 65.5421
45.8550 62.9235
45.8609 60.2097
45.8668 57.6645
45.8727 55.2791
45.8786 53.0447
45.8845 50.9528
45.8903 48.9950
45.8962 47.1633
45.9021 45.4525
45.9080 43.8493
45.9139 42.3495
45.9198 40.9462
45.9257 39.6350
45.9316 38.4053
45.9374 37.2534
45.9433 36.1740
45.9492 35.1634
45.9583 33.7203
45.9674 32.4098
45.9765 31.2173
45.9856 30.1297
45.9947 29.1354
46.0038 28.2241
46.0129 27.3867
46.0220 26.6162
46.0311 25.9037
46.0402 25.2440
46.0493 24.6317
46.0584 24.0620
46.0675 23.5306
46.0766 23.0340
46.0857 22.5689
46.0948 22.1328
46.1066 21.6059
46.1184 21.1180
46.1301 20.6649
46.1419 20.2433
46.1537 19.8494
46.1655 19.4813
46.1772 19.1359
46.1890 18.8118
46.2008 18.5066
46.2126 18.2190
46.2361 17.6910
46.2597 17.2179
46.2832 16.7917
46.3036 16.4564
46.3239 16.1478
46.3442 15.8628
46.3646 15.5990
46.3849 15.3542
46.4053 15.1264
46.4256 14.9139
46.4459 14.7154
46.4663 14.5295
46.4866 14.3551
46.5273 14.0369
46.5680 13.7541
46.6086 13.5014
46.6408 13.3202
46.6729 13.1532
46.7050 12.9989
46.7371 12.8561
46.7692 12.7235
46.8013 12.6002
46.8656 12.3780
46.9298 12.1839
46.9940 12.0133
47.0583 11.8629
47.1225 11.7300
47.1910 11.6054
47.2595 11.4964
47.3537 11.3694
47.4479 11.2661
47.5421 11.1847
47.6363 11.1240
47.7305 11.0834
47.8247 11.0630
47.9189 11.0635
48.0131 11.0861
48.1074 11.1327
48.2016 11.2056
48.2958 11.3080
48.3900 11.4441
48.4842 11.6190
48.5313 11.7229
48.5784 11.8390
48.6255 11.9684
48.6726 12.1123
48.7197 12.2719
48.7668 12.4489
48.8353 12.7407
48.9038 13.0787
48.9723 13.4700
49.0408 13.9230
49.0965 14.3436
49.1522 14.8183
49.2078 15.3553
49.2635 15.9638
49.3192 16.6554
49.3748 17.4432
49.4305 18.3433
49.4583 18.8413
49.4862 19.3747
49.5333 20.3677
49.5804 21.4885
49.6275 22.7582
49.6510 23.4564
49.6746 24.2015
49.6981 24.9978
49.7217 25.8490
49.7452 26.7604
49.7688 27.7372
49.7923 28.7855
49.8159 29.9120
49.8394 31.1242
49.8630 32.4306
49.8801 33.4454
49.8972 34.5191
49.9144 35.6561
49.9315 36.8606
49.9486 38.1393
49.9658 39.4973
49.9829 40.9411
50.0000 42.4769
50.0238 44.7800
50.0476 47.3003
50.0714 50.0665
50.0951 53.1106
50.1189 56.4721
50.1308 58.2841
50.1427 60.1923
50.1546 62.2037
50.1665 64.3255
50.1784 66.5661
50.1903 68.9344
50.2090 72.9394
50.2276 77.3257
50.2463 82.1487
50.2650 87.4631
50.2744 90.3303
50.2837 93.3456
50.2930 96.5230
50.3024 99.8747
50.3117 103.414
50.3211 107.155
50.3304 111.115
50.3397 115.312
50.3491 119.769
50.3584 124.501
50.3678 129.536
50.3771 134.901
50.3865 140.634
50.3958 146.758
50.4051 153.317
50.4145 160.354
50.4238 167.928
50.4332 176.076
50.4425 184.871
50.4518 194.381
50.4612 204.698
50.4705 215.888
50.4799 228.064
50.4892 241.337
50.4952 250.423
50.5011 260.041
50.5071 270.229
50.5130 281.012
50.5190 292.467
50.5249 304.605
50.5308 317.516
50.5368 331.209
50.5427 345.788
50.5487 361.263
50.5546 377.750
50.5606 395.260
50.5665 413.921
50.5725 433.746
50.5784 454.877
50.5843 477.324
50.5890 496.014
50.5937 515.592
50.5984 536.140
50.6030 557.701
50.6077 580.318
50.6124 604.038
50.6170 628.904
50.6217 654.963
50.6264 682.320
50.6311 710.904
50.6357 740.817
50.6404 772.105
50.6451 804.811
50.6497 838.978
50.6591 911.863
50.6684 991.160
50.6778 1076.98
50.6871 1169.62
50.6965 1269.26
50.7058 1376.10
50.7151 1489.93
50.7245 1610.76
50.7338 1738.40
50.7415 1847.79
50.7491 1961.13
50.7644 2199.00
50.7797 2448.83
50.7950 2706.29
50.8137 3024.22
50.8323 3334.94
50.8510 3626.40
50.8604 3760.95
50.8697 3885.98
50.8829 4043.42
50.8961 4174.95
50.9093 4277.39
50.9224 4348.12
50.9312 4376.74
50.9400 4390.12
50.9444 4391.06
50.9515 4384.38
50.9587 4367.64
50.9658 4340.98
50.9730 4304.63
50.9801 4258.89
50.9872 4204.13
51.0015 4069.40
51.0111 3961.51
51.0207 3841.46
51.0304 3710.82
51.0400 3571.40
51.0581 3289.92
51.0762 2994.17
51.0943 2694.43
51.1124 2400.36
51.1215 2257.78
51.1305 2119.30
51.1396 1985.58
51.1486 1857.32
51.1577 1734.63
51.1668 1617.98
51.1758 1507.58
51.1849 1403.64
51.1939 1305.96
51.2030 1214.70
51.2120 1129.55
51.2211 1050.52
51.2310 970.783
51.2409 897.718
51.2507 830.877
51.2606 769.868
51.2705 714.289
51.2804 663.735
51.2903 617.803
51.3001 576.105
51.3092 541.266
51.3183 509.397
51.3273 480.238
51.3364 453.573
51.3454 429.119
51.3545 406.697
51.3636 386.115
51.3726 367.219
51.3817 349.805
51.3907 333.752
51.3998 318.929
51.4088 305.231
51.4179 292.523
51.4270 280.725
51.4360 269.751
51.4451 259.536
51.4541 249.990
51.4632 241.062
51.4722 232.698
51.4813 224.858
51.4904 217.481
51.4994 210.536
51.5085 203.988
51.5175 197.812
51.5356 186.433
51.5538 176.215
51.5719 166.987
51.5900 158.628
51.6048 152.349
51.6196 146.529
51.6345 141.118
51.6493 136.078
51.6641 131.375
51.6789 126.980
51.6937 122.866
51.7086 119.010
51.7234 115.391
51.7382 111.990
51.7530 108.792
51.7678 105.781
51.7827 102.944
51.7975 100.269
51.8271 95.3639
51.8436 92.8734
51.8601 90.5370
51.8765 88.3454
51.8930 86.2913
51.9095 84.3651
51.9259 82.5616
51.9424 80.8755
51.9589 79.3029
51.9753 77.8381
51.9918 76.4791
52.0083 75.2236
52.0247 74.0708
52.0412 73.0188
52.0577 72.0687
52.0741 71.2220
52.0906 70.4817
52.1153 69.5787
52.1400 68.9455
52.1524 68.7397
52.1647 68.6150
52.1771 68.5782
52.1894 68.6377
52.2018 68.8039
52.2141 69.0892
52.2265 69.5091
52.2388 70.0823
52.2512 70.8319
52.2635 71.7858
52.2759 72.9783
52.2882 74.4508
52.2969 75.6753
52.3055 77.0815
52.3142 78.6923
52.3228 80.5310
52.3315 82.6309
52.3401 85.0195
52.3487 87.7382
52.3574 90.8210
52.3660 94.3189
52.3747 98.2771
52.3833 102.748
52.3920 107.783
52.4006 113.454
52.4093 119.813
52.4179 126.943
52.4222 130.811
52.4266 134.897
52.4311 139.424
52.4356 144.211
52.4401 149.268
52.4447 154.605
52.4492 160.234
52.4537 166.164
52.4583 172.407
52.4628 178.956
52.4673 185.851
52.4718 193.086
52.4809 208.596
52.4900 225.583
52.4990 244.060
52.5089 265.998
52.5188 289.802
52.5286 315.468
52.5385 342.958
52.5455 363.500
52.5525 384.882
52.5665 429.959
52.5805 477.663
52.5945 527.253
52.6126 592.888
52.6307 657.955
52.6489 719.939
52.6579 748.908
52.6670 776.042
52.6801 811.634
52.6933 841.762
52.7002 855.135
52.7072 866.658
52.7141 876.241
52.7210 883.798
52.7305 890.786
52.7400 893.780
52.7481 893.133
52.7570 889.092
52.7658 881.646
52.7746 870.880
52.7834 856.963
52.7947 834.716
52.8061 808.046
52.8164 780.154
52.8268 749.486
52.8372 716.478
52.8476 681.699
52.8683 608.725
52.8890 534.469
52.9004 494.618
52.9117 455.850
52.9230 418.555
52.9343 383.080
52.9447 352.300
52.9551 323.389
52.9654 296.375
52.9706 283.605
52.9758 271.353
52.9810 259.570
52.9862 248.279
52.9914 237.474
52.9966 227.168
53.0018 217.314
53.0069 207.923
53.0121 198.983
53.0173 190.500
53.0225 182.428
53.0277 174.771
53.0329 167.514
53.0381 160.656
53.0433 154.156
53.0484 148.013
53.0536 142.211
53.0588 136.745
53.0640 131.579
53.0692 126.709
53.0744 122.121
53.0796 117.808
53.0848 113.739
53.0899 109.909
53.0951 106.304
53.1003 102.919
53.1050 100.008
53.1098 97.2542
53.1145 94.6483
53.1192 92.1873
53.1239 89.8527
53.1286 87.6469
53.1333 85.5534
53.1380 83.5740
53.1475 79.9150
53.1569 76.6216
53.1663 73.6508
53.1758 70.9642
53.1852 68.5254
53.1946 66.3096
53.2041 64.2879
53.2135 62.4373
53.2229 60.7377
53.2324 59.1718
53.2418 57.7242
53.2512 56.3819
53.2616 55.0124
53.2720 53.7445
53.2823 52.5644
53.2927 51.4648
53.3031 50.4350
53.3135 49.4699
53.3238 48.5614
53.3342 47.7057
53.3550 46.1311
53.3757 44.7147
53.3965 43.4317
53.4172 42.2628
53.4380 41.1922
53.4587 40.2071
53.4795 39.2968
53.5002 38.4524
53.5210 37.6666
53.5417 36.9329
53.5625 36.2459
53.5832 35.6008
53.6040 34.9938
53.6247 34.4211
53.6455 33.8797
53.6662 33.3670
53.6870 32.8804
53.7077 32.4178
53.7492 31.5575
53.7756 31.0500
53.8020 30.5704
53.8284 30.1161
53.8548 29.6851
53.8813 29.2754
53.9077 28.8852
53.9605 28.1580
54.0133 27.4926
54.0661 26.8807
54.1189 26.3153
54.1717 25.7909
54.2132 25.4044
54.2547 25.0383
54.2962 24.6909
54.3377 24.3607
54.3792 24.0464
54.4207 23.7467
54.5037 23.1872
54.5867 22.6750
54.6697 22.2043
54.7527 21.7703
54.8357 21.3694
54.8961 21.0967
54.9565 20.8390
55.0168 20.5954
55.0772 20.3653
55.1376 20.1483
55.1979 19.9442
55.2583 19.7530
55.3186 19.5747
55.3790 19.4099
55.4394 19.2592
55.4997 19.1240
55.5601 19.0058
55.6205 18.9074
55.6506 18.8666
55.6808 18.8323
55.7110 18.8050
55.7412 18.7857
55.7714 18.7753
55.8015 18.7751
55.8374 18.7902
55.8732 18.8249
55.9091 18.8832
55.9270 18.9229
55.9449 18.9706
55.9628 19.0273
55.9807 19.0941
55.9987 19.1724
56.0166 19.2636
56.0345 19.3697
56.0524 19.4929
56.0703 19.6359
56.0883 19.8020
56.1090 20.0288
56.1194 20.1585
56.1298 20.3005
56.1401 20.4565
56.1505 20.6279
56.1609 20.8170
56.1713 21.0255
56.1816 21.2565
56.1920 21.5125
56.2024 21.7974
56.2128 22.1148
56.2231 22.4697
56.2335 22.8670
56.2439 23.3135
56.2543 23.8153
56.2618 24.2204
56.2693 24.6621
56.2769 25.1455
56.2844 25.6733
56.2920 26.2516
56.2995 26.8836
56.3071 27.5763
56.3146 28.3336
56.3222 29.1636
56.3297 30.0704
56.3373 31.0635
56.3448 32.1474
56.3523 33.3326
56.3599 34.6238
56.3674 36.0326
56.3750 37.5637
56.3802 38.6940
56.3854 39.8899
56.3905 41.1541
56.3957 42.4894
56.4009 43.8985
56.4061 45.3840
56.4113 46.9485
56.4165 48.5912
56.4217 50.3209
56.4269 52.1366
56.4321 54.0403
56.4372 56.0300
56.4476 60.2925
56.4580 64.9256
56.4669 69.2339
56.4759 73.8246
56.4849 78.6936
56.4938 83.8324
56.5028 89.2285
56.5117 94.8645
56.5297 106.762
56.5400 113.960
56.5504 121.304
56.5608 128.736
56.5712 136.181
56.5881 148.189
56.6051 159.636
56.6155 166.187
56.6259 172.285
56.6362 177.849
56.6466 182.798
56.6558 186.605
56.6650 189.826
56.6741 192.422
56.6833 194.361
56.6917 195.534
56.7000 196.134
56.7075 196.180
56.7150 195.758
56.7225 194.873
56.7300 193.533
56.7388 191.407
56.7476 188.702
56.7564 185.452
56.7652 181.694
56.7732 177.824
56.7813 173.597
56.7975 164.229
56.8136 153.917
56.8298 143.002
56.8445 132.820
56.8592 122.628
56.8739 112.629
56.8886 102.992
56.8966 97.8957
56.9047 92.9693
56.9128 88.2276
56.9209 83.6824
56.9290 79.3428
56.9370 75.2151
56.9451 71.3030
56.9532 67.6121
56.9635 63.2184
56.9686 61.1531
56.9738 59.1727
56.9789 57.2757
56.9840 55.4605
56.9892 53.7254
56.9943 52.0683
56.9995 50.4874
57.0046 48.9802
57.0097 47.5446
57.0149 46.1782
57.0200 44.8785
57.0252 43.6431
57.0303 42.4696
57.0354 41.3554
57.0435 39.7178
57.0516 38.2111
57.0597 36.8259
57.0678 35.5532
57.0758 34.3842
57.0839 33.3106
57.0920 32.3245
57.1001 31.4185
57.1082 30.5857
57.1162 29.8196
57.1243 29.1141
57.1324 28.4639
57.1405 27.8637
57.1486 27.3091
57.1566 26.7956
57.1647 26.3201
57.1743 25.8009
57.1838 25.3239
57.1934 24.8845
57.2029 24.4792
57.2124 24.1035
57.2220 23.7547
57.2315 23.4300
57.2411 23.1274
57.2506 22.8440
57.2602 22.5783
57.2697 22.3286
57.2793 22.0937
57.2984 21.6621
57.3175 21.2752
57.3336 20.9772
57.3498 20.7028
57.3659 20.4490
57.3821 20.2137
57.3983 19.9944
57.4144 19.7897
57.4306 19.5981
57.4467 19.4183
57.4629 19.2491
57.4790 19.0895
57.5114 18.7961
57.5437 18.5322
57.5760 18.2933
57.6039 18.1042
57.6318 17.9291
57.6597 17.7662
57.6876 17.6141
57.7155 17.4718
57.7434 17.3380
57.7714 17.2121
57.7993 17.0931
57.8272 16.9804
57.8551 16.8735
57.9109 16.6748
57.9667 16.4936
58.0225 16.3273
58.0725 16.1892
58.1224 16.0599
58.1724 15.9384
58.2223 15.8238
58.2722 15.7153
58.3222 15.6122
58.4221 15.4199
58.5219 15.2435
58.6218 15.0802
58.7217 14.9281
58.8216 14.7856
58.9391 14.6284
59.0566 14.4809
59.1741 14.3419
59.2916 14.2103
59.4209 14.0733
59.5502 13.9435
59.6794 13.8206
59.8087 13.7040
59.9379 13.5936
60.0672 13.4895
60.1965 13.3918
60.3257 13.3010
60.4256 13.2362
60.5255 13.1765
60.6254 13.1227
60.7253 13.0756
60.8251 13.0366
60.8751 13.0206
60.9250 13.0073
60.9750 12.9970
61.0249 12.9901
61.0748 12.9869
61.1248 12.9880
61.1894 12.9966
61.2540 13.0148
61.3187 13.0444
61.3833 13.0876
61.4156 13.1152
61.4479 13.1474
61.4803 13.1846
61.5126 13.2275
61.5449 13.2767
61.5772 13.3328
61.6095 13.3968
61.6418 13.4697
61.6800 13.5689
61.7182 13.6842
61.7564 13.8186
61.7946 13.9752
61.8328 14.1583
61.8519 14.2612
61.8710 14.3728
61.8901 14.4938
61.9092 14.6251
61.9283 14.7679
61.9473 14.9233
61.9635 15.0657
61.9797 15.2191
61.9958 15.3845
62.0120 15.5629
62.0281 15.7561
62.0443 15.9653
62.0605 16.1924
62.0766 16.4391
62.0928 16.7082
62.1089 17.0020
62.1251 17.3239
62.1412 17.6772
62.1574 18.0667
62.1736 18.4976
62.1897 18.9761
62.2059 19.5096
62.2235 20.1663
62.2323 20.5285
62.2411 20.9155
62.2499 21.3309
62.2588 21.7766
62.2676 22.2564
62.2764 22.7738
62.2852 23.3339
62.2940 23.9399
62.3028 24.5980
62.3116 25.3140
62.3204 26.0959
62.3293 26.9493
62.3381 27.8840
62.3469 28.9095
62.3550 29.9391
62.3630 31.0635
62.3711 32.2930
62.3792 33.6389
62.3873 35.1134
62.3954 36.7302
62.4034 38.5038
62.4115 40.4476
62.4196 42.5835
62.4277 44.9276
62.4357 47.4996
62.4438 50.3202
62.4519 53.4113
62.4600 56.7959
62.4681 60.4979
62.4761 64.5367
62.4813 67.3039
62.4864 70.2210
62.4916 73.2997
62.4967 76.5467
62.5018 79.9684
62.5070 83.5712
62.5121 87.3614
62.5173 91.3452
62.5224 95.5367
62.5276 99.9254
62.5327 104.524
62.5378 109.339
62.5481 119.631
62.5584 130.831
62.5665 140.286
62.5746 150.320
62.5826 160.932
62.5907 172.117
62.5988 183.863
62.6069 196.152
62.6150 208.958
62.6230 222.249
62.6308 235.363
62.6385 248.825
62.6462 262.602
62.6539 276.641
62.6693 305.257
62.6847 334.123
62.7009 363.958
62.7170 392.570
62.7332 419.169
62.7493 442.904
62.7576 453.714
62.7659 463.465
62.7742 472.082
62.7824 479.487
62.7910 485.836
62.7997 490.734
62.8083 494.132
62.8169 495.997
62.8200 496.291
62.8325 495.415
62.8419 492.614
62.8513 488.023
62.8607 481.700
62.8701 473.724
62.8804 463.151
62.8908 450.865
62.9011 437.035
62.9114 421.852
62.9218 405.523
62.9321 388.258
62.9424 370.271
62.9527 351.795
62.9734 314.093
62.9941 276.702
63.0119 245.598
63.0208 230.700
63.0297 216.319
63.0387 202.508
63.0476 189.309
63.0565 176.752
63.0654 164.858
63.0758 151.928
63.0861 139.908
63.0964 128.791
63.1016 123.560
63.1067 118.556
63.1119 113.756
63.1171 109.174
63.1222 104.788
63.1274 100.610
63.1326 96.6176
63.1377 92.8207
63.1429 89.2057
63.1481 85.7665
63.1551 81.3407
63.1621 77.2212
63.1692 73.3856
63.1762 69.8179
63.1833 66.4979
63.1903 63.4194
63.1974 60.5624
63.2044 57.9123
63.2114 55.4517
63.2185 53.1741
63.2255 51.0628
63.2326 49.1057
63.2396 47.2912
63.2466 45.6085
63.2537 44.0472
63.2607 42.5979
63.2711 40.6555
63.2814 38.9093
63.2917 37.3363
63.3020 35.9163
63.3124 34.6311
63.3227 33.4649
63.3330 32.4036
63.3434 31.4361
63.3537 30.5497
63.3640 29.7362
63.3743 28.9875
63.3847 28.2965
63.3950 27.6570
63.4053 27.0639
63.4157 26.5123
63.4260 25.9988
63.4401 25.3518
63.4542 24.7609
63.4682 24.2186
63.4823 23.7204
63.4964 23.2609
63.5105 22.8367
63.5246 22.4440
63.5387 22.0803
63.5528 21.7426
63.5668 21.4292
63.5950 20.8669
63.6232 20.3808
63.6513 19.9610
63.6814 19.5774
63.7114 19.2534
63.7415 18.9833
63.7715 18.7633
63.7922 18.6396
63.8128 18.5375
63.8335 18.4568
63.8541 18.3973
63.8748 18.3590
63.8955 18.3424
63.9161 18.3478
63.9368 18.3761
63.9574 18.4285
63.9781 18.5061
63.9988 18.6109
64.0194 18.7447
64.0401 18.9105
64.0607 19.1112
64.0814 19.3508
64.1020 19.6338
64.1246 19.9992
64.1471 20.4325
64.1696 20.9462
64.1809 21.2377
64.1922 21.5552
64.2034 21.9018
64.2147 22.2803
64.2260 22.6945
64.2372 23.1480
64.2485 23.6465
64.2598 24.1954
64.2711 24.8014
64.2823 25.4716
64.2926 26.1512
64.3030 26.9013
64.3133 27.7315
64.3236 28.6527
64.3340 29.6779
64.3443 30.8218
64.3546 32.1014
64.3649 33.5347
64.3753 35.1468
64.3856 36.9615
64.3959 39.0077
64.4063 41.3176
64.4114 42.5839
64.4166 43.9274
64.4218 45.3585
64.4269 46.8771
64.4321 48.4949
64.4373 50.2113
64.4424 52.0358
64.4476 53.9746
64.4532 56.2327
64.4588 58.6401
64.4645 61.2149
64.4701 63.9577
64.4758 66.8883
64.4814 70.0065
64.4870 73.3279
64.4926 76.8633
64.4983 80.6302
64.5039 84.6265
64.5096 88.8772
64.5152 93.3783
64.5208 98.1568
64.5265 103.206
64.5321 108.546
64.5377 114.185
64.5429 119.636
64.5480 125.344
64.5532 131.338
64.5584 137.600
64.5635 144.161
64.5687 150.999
64.5739 158.147
64.5790 165.578
64.5842 173.325
64.5894 181.360
64.5945 189.712
64.5997 198.351
64.6049 207.307
64.6100 216.542
64.6152 226.088
64.6204 235.902
64.6279 250.682
64.6354 266.026
64.6415 278.900
64.6476 292.080
64.6598 319.337
64.6720 347.558
64.6842 376.429
64.6936 398.900
64.7030 421.404
64.7218 465.747
64.7321 489.331
64.7424 511.989
64.7527 533.448
64.7631 553.418
64.7734 571.681
64.7837 587.973
64.7957 604.157
64.8078 617.069
64.8158 623.771
64.8239 628.834
64.8319 632.216
64.8400 633.890
64.8517 633.253
64.8605 630.397
64.8693 625.546
64.8781 618.754
64.8869 610.100
64.8952 600.304
64.9035 589.042
64.9118 576.407
64.9201 562.517
64.9284 547.497
64.9367 531.477
64.9532 496.988
64.9713 456.727
64.9894 415.123
65.0060 376.899
65.0226 339.532
65.0391 303.774
65.0474 286.691
65.0557 270.219
65.0640 254.407
65.0723 239.295
65.0806 224.911
65.0889 211.276
65.0972 198.403
65.1055 186.296
65.1138 174.954
65.1220 164.369
65.1292 155.827
65.1364 147.830
65.1435 140.366
65.1507 133.419
65.1578 126.975
65.1650 121.017
65.1722 115.529
65.1793 110.500
65.1865 105.900
65.1936 101.718
65.2008 97.9398
65.2080 94.5494
65.2151 91.5327
65.2223 88.8769
65.2294 86.5703
65.2366 84.6055
65.2456 82.5905
65.2547 81.0923
65.2637 80.0999
65.2728 79.6095
65.2811 79.6024
65.2893 80.0235
65.2976 80.8807
65.3059 82.1857
65.3142 83.9535
65.3225 86.2024
65.3308 88.9539
65.3391 92.2322
65.3474 96.0639
65.3557 100.478
65.3640 105.506
65.3722 111.178
65.3805 117.529
65.3888 124.591
65.3971 132.395
65.4054 140.975
65.4145 151.259
65.4235 162.521
65.4325 174.799
65.4416 188.116
65.4499 201.252
65.4582 215.273
65.4664 230.175
65.4747 245.943
65.4830 262.554
65.4913 279.974
65.4996 298.157
65.5079 317.047
65.5215 349.313
65.5350 382.897
65.5486 417.375
65.5621 452.226
65.5787 494.507
65.5953 535.264
65.6119 573.287
65.6202 590.886
65.6285 607.323
65.6390 626.406
65.6496 643.114
65.6606 657.748
65.6715 669.312
65.6787 675.087
65.6858 679.451
65.6929 682.387
65.7000 683.869
65.7052 684.029
65.7136 682.640
65.7220 679.226
65.7304 673.824
65.7388 666.490
65.7510 652.663
65.7631 635.261
65.7750 615.016
65.7869 592.059
65.7961 572.699
65.8053 552.182
65.8237 508.425
65.8476 448.716
65.8714 388.632
65.8833 359.352
65.8952 330.992
65.9072 303.797
65.9191 277.983
65.9304 254.722
65.9418 232.943
65.9475 222.610
65.9532 212.678
65.9589 203.112
65.9646 193.948
65.9702 185.150
65.9759 176.733
65.9816 168.690
65.9873 161.030
65.9930 153.719
65.9987 146.774
66.0044 140.162
66.0100 133.896
66.0160 127.671
66.0220 121.790
66.0279 116.241
66.0339 111.020
66.0398 106.095
66.0458 101.462
66.0518 97.1077
66.0577 93.0242
66.0637 89.1849
66.0696 85.5836
66.0756 82.2073
66.0815 79.0485
66.0875 76.0842
66.0935 73.3082
66.0994 70.7089
66.1054 68.2792
66.1108 66.2009
66.1162 64.2432
66.1216 62.3991
66.1270 60.6646
66.1325 59.0269
66.1379 57.4857
66.1433 56.0293
66.1487 54.6577
66.1541 53.3604
66.1595 52.1350
66.1704 49.8836
66.1812 47.8669
66.1920 46.0548
66.2029 44.4198
66.2137 42.9421
66.2245 41.6003
66.2354 40.3773
66.2462 39.2584
66.2570 38.2311
66.2678 37.2843
66.2787 36.4088
66.2906 35.5180
66.3025 34.6946
66.3144 33.9309
66.3263 33.2208
66.3383 32.5575
66.3502 31.9373
66.3621 31.3549
66.3740 30.8077
66.3978 29.8049
66.4217 28.9081
66.4455 28.1014
66.4693 27.3719
66.4932 26.7094
66.5170 26.1054
66.5408 25.5532
66.5646 25.0469
66.5885 24.5818
66.6123 24.1538
66.6361 23.7594
66.6600 23.3958
66.6838 23.0604
66.7076 22.7511
66.7315 22.4662
66.7553 22.2042
66.7791 21.9638
66.8029 21.7439
66.8268 21.5439
66.8506 21.3629
66.8734 21.2076
66.8961 21.0691
66.9189 20.9473
66.9416 20.8424
66.9643 20.7544
66.9871 20.6838
67.0098 20.6312
67.0326 20.5973
67.0553 20.5832
67.0781 20.5901
67.1008 20.6195
67.1236 20.6734
67.1463 20.7541
67.1691 20.8644
67.1918 21.0077
67.2146 21.1882
67.2384 21.4228
67.2622 21.7114
67.2861 22.0631
67.2980 22.2665
67.3099 22.4902
67.3218 22.7368
67.3337 23.0083
67.3456 23.3080
67.3575 23.6387
67.3695 24.0047
67.3814 24.4101
67.3933 24.8607
67.4052 25.3624
67.4155 25.8434
67.4258 26.3737
67.4361 26.9604
67.4464 27.6113
67.4567 28.3356
67.4670 29.1438
67.4772 30.0482
67.4875 31.0633
67.4978 32.2068
67.5081 33.4957
67.5184 34.9530
67.5287 36.6041
67.5339 37.5121
67.5390 38.4779
67.5441 39.5093
67.5493 40.6070
67.5544 41.7800
67.5596 43.0286
67.5647 44.3633
67.5699 45.7842
67.5758 47.5511
67.5818 49.4551
67.5877 51.5068
67.5937 53.7131
67.5997 56.0928
67.6056 58.6545
67.6116 61.4107
67.6175 64.3695
67.6235 67.5542
67.6294 70.9742
67.6354 74.6442
67.6414 78.5720
67.6473 82.7863
67.6533 87.2882
67.6592 92.1086
67.6652 97.2471
67.6711 102.737
67.6771 108.585
67.6831 114.807
67.6890 121.418
67.6950 128.432
67.7009 135.865
67.7069 143.728
67.7128 152.020
67.7188 160.779
67.7248 170.003
67.7307 179.699
67.7367 189.856
67.7426 200.514
67.7486 211.659
67.7546 223.290
67.7605 235.387
67.7692 253.847
67.7757 268.356
67.7822 283.409
67.7887 298.986
67.7952 315.064
67.8017 331.614
67.8082 348.605
67.8212 383.720
67.8331 417.044
67.8450 451.082
67.8569 485.455
67.8688 519.710
67.8818 556.461
67.8948 591.935
67.9067 622.789
67.9187 651.506
67.9306 677.631
67.9425 700.714
67.9549 721.129
67.9673 737.362
67.9812 750.128
67.9881 754.328
67.9950 757.034
68.0000 758.055
68.0075 758.086
68.0151 756.318
68.0226 752.768
68.0302 747.466
68.0377 740.467
68.0493 726.418
68.0610 708.695
68.0724 688.033
68.0839 664.518
68.0927 644.611
68.1015 623.436
68.1192 578.010
68.1306 547.031
68.1421 515.314
68.1649 451.270
68.1764 419.644
68.1878 388.758
68.1992 358.851
68.2106 330.150
68.2216 304.048
68.2325 279.332
68.2434 256.088
68.2543 234.373
68.2597 224.087
68.2652 214.209
68.2707 204.701
68.2761 195.595
68.2816 186.855
68.2870 178.508
68.2925 170.516
68.2979 162.902
68.3036 155.293
68.3094 148.065
68.3151 141.207
68.3208 134.720
68.3265 128.568
68.3322 122.760
68.3379 117.264
68.3437 112.085
68.3494 107.193
68.3551 102.592
68.3608 98.2519
68.3665 94.1755
68.3722 90.3357
68.3779 86.7334
68.3837 83.3437
68.3894 80.1664
68.3977 75.8826
68.4060 71.9825
68.4143 68.4243
68.4226 65.1861
68.4310 62.2316
68.4393 59.5412
68.4476 57.0867
68.4559 54.8456
68.4642 52.7948
68.4725 50.9202
68.4808 49.2020
68.4891 47.6247
68.4975 46.1725
68.5058 44.8360
68.5141 43.6021
68.5224 42.4605
68.5338 41.0242
68.5452 39.7243
68.5567 38.5429
68.5681 37.4647
68.5795 36.4766
68.5910 35.5677
68.6024 34.7284
68.6138 33.9508
68.6253 33.2278
68.6367 32.5536
68.6481 31.9232
68.6595 31.3321
68.6710 30.7766
68.6824 30.2534
68.6938 29.7595
68.7053 29.2925
68.7198 28.7333
68.7344 28.2101
68.7489 27.7193
68.7635 27.2579
68.7780 26.8234
68.7926 26.4133
68.8071 26.0256
68.8217 25.6588
68.8508 24.9802
68.8798 24.3668
68.9089 23.8092
68.9380 23.3004
68.9609 22.9304
68.9838 22.5842
69.0066 22.2594
69.0295 21.9541
69.0524 21.6664
69.0752 21.3950
69.0981 21.1385
69.1209 20.8956
69.1438 20.6652
69.1667 20.4464
69.2124 20.0403
69.2581 19.6710
69.3038 19.3337
69.3371 19.1060
69.3703 18.8918
69.4036 18.6896
69.4368 18.4986
69.4701 18.3177
69.5033 18.1461
69.5366 17.9830
69.5698 17.8278
69.6364 17.5386
69.7029 17.2743
69.7694 17.0316
69.8359 16.8076
69.8816 16.6633
69.9273 16.5261
69.9730 16.3955
70.0188 16.2709
70.1102 16.0379
70.2016 15.8239
70.2931 15.6264
70.3845 15.4432
70.4760 15.2726
70.5674 15.1130
70.6589 14.9631
70.7503 14.8217
70.8418 14.6878
70.9332 14.5607
71.0247 14.4398
71.1161 14.3245
71.2075 14.2142
71.2990 14.1086
71.3904 14.0071
71.4819 13.9094
71.6648 13.7243
71.8477 13.5511
72.0305 13.3879
72.1635 13.2747
72.3464 13.1257
72.5293 12.9836
72.7122 12.8474
72.8951 12.7167
73.0780 12.5910
73.2609 12.4701
73.3523 12.4113
73.4438 12.3538
73.5352 12.2975
73.6267 12.2424
73.7514 12.1695
73.8761 12.0994
74.0008 12.0324
74.1255 11.9691
74.2502 11.9104
74.3125 11.8830
74.3749 11.8572
74.4372 11.8332
74.4996 11.8112
74.5619 11.7915
74.6243 11.7744
74.7032 11.7572
74.7822 11.7458
74.8612 11.7416
74.9402 11.7462
74.9797 11.7524
75.0191 11.7616
75.0586 11.7742
75.0981 11.7906
75.1376 11.8113
75.1771 11.8369
75.2166 11.8681
75.2561 11.9055
75.3018 11.9581
75.3475 12.0220
75.3932 12.0995
75.4390 12.1931
75.4847 12.3059
75.5075 12.3708
75.5304 12.4422
75.5533 12.5206
75.5761 12.6068
75.5990 12.7019
75.6218 12.8066
75.6551 12.9790
75.6883 13.1786
75.7216 13.4111
75.7382 13.5417
75.7548 13.6831
75.7715 13.8366
75.7881 14.0035
75.8047 14.1852
75.8214 14.3835
75.8380 14.6006
75.8546 14.8386
75.8712 15.1007
75.8879 15.3899
75.8993 15.6070
75.9107 15.8403
75.9222 16.0917
75.9336 16.3634
75.9450 16.6576
75.9564 16.9772
75.9679 17.3253
75.9793 17.7056
75.9907 18.1229
76.0022 18.5814
76.0136 19.0874
76.0250 19.6476
76.0365 20.2702
76.0479 20.9645
76.0593 21.7411
76.0708 22.6128
76.0796 23.3613
76.0884 24.1818
76.0973 25.0836
76.1061 26.0760
76.1149 27.1706
76.1238 28.3764
76.1326 29.7069
76.1414 31.1757
76.1503 32.7997
76.1591 34.5912
76.1679 36.5692
76.1767 38.7524
76.1856 41.1633
76.1944 43.8175
76.2032 46.7397
76.2121 49.9530
76.2178 52.2011
76.2235 54.5837
76.2292 57.1159
76.2349 59.7957
76.2407 62.6394
76.2464 65.6437
76.2521 68.8261
76.2578 72.1822
76.2635 75.7303
76.2692 79.4645
76.2749 83.4042
76.2807 87.5415
76.2864 91.8966
76.2921 96.4596
76.2978 101.251
76.3035 106.259
76.3090 111.261
76.3144 116.475
76.3199 121.902
76.3253 127.534
76.3308 133.392
76.3363 139.455
76.3417 145.745
76.3472 152.237
76.3581 165.864
76.3690 180.306
76.3799 195.520
76.3908 211.442
76.4033 230.407
76.4157 250.049
76.4272 268.513
76.4386 287.226
76.4500 306.030
76.4615 324.734
76.4750 346.437
76.4885 367.351
76.4999 384.189
76.5113 399.997
76.5228 414.577
76.5342 427.701
76.5450 438.627
76.5559 447.952
76.5691 457.012
76.5823 463.305
76.5912 465.906
76.6000 467.202
76.6118 466.884
76.6206 465.117
76.6294 462.062
76.6383 457.748
76.6471 452.218
76.6593 442.659
76.6715 431.056
76.6827 418.781
76.6939 405.122
76.7051 390.269
76.7163 374.432
76.7275 357.784
76.7387 340.556
76.7611 305.104
76.7835 269.524
76.7947 252.093
76.8059 235.106
76.8166 219.386
76.8273 204.250
76.8379 189.768
76.8486 176.006
76.8593 162.979
76.8700 150.738
76.8807 139.272
76.8914 128.605
76.8970 123.324
76.9026 118.256
76.9082 113.397
76.9138 108.745
76.9194 104.295
76.9250 100.043
76.9306 95.9844
76.9362 92.1214
76.9418 88.4347
76.9474 84.9259
76.9530 81.5893
76.9585 78.4245
76.9641 75.4143
76.9697 72.5586
76.9753 69.8513
76.9809 67.2907
76.9906 63.1786
77.0003 59.4424
77.0099 56.0522
77.0196 52.9793
77.0293 50.1963
77.0390 47.6771
77.0486 45.3974
77.0583 43.3362
77.0680 41.4684
77.0776 39.7766
77.0873 38.2431
77.0970 36.8529
77.1066 35.5884
77.1163 34.4379
77.1260 33.3892
77.1356 32.4327
77.1478 31.3383
77.1601 30.3579
77.1723 29.4760
77.1845 28.6801
77.1967 27.9587
77.2089 27.3039
77.2211 26.7071
77.2333 26.1616
77.2455 25.6613
77.2578 25.2021
77.2700 24.7793
77.2822 24.3892
77.3066 23.6952
77.3310 23.1003
77.3514 22.6687
77.3717 22.2883
77.3921 21.9531
77.4124 21.6590
77.4328 21.4020
77.4532 21.1792
77.4735 20.9880
77.4939 20.8264
77.5163 20.6809
77.5386 20.5674
77.5610 20.4848
77.5834 20.4320
77.6058 20.4085
77.6282 20.4141
77.6506 20.4487
77.6730 20.5129
77.6954 20.6071
77.7178 20.7325
77.7402 20.8902
77.7625 21.0821
77.7849 21.3100
77.8073 21.5765
77.8297 21.8846
77.8521 22.2377
77.8826 22.7998
77.9132 23.4665
77.9284 23.8442
77.9437 24.2543
77.9590 24.7001
77.9742 25.1840
77.9895 25.7102
78.0048 26.2825
78.0200 26.9053
78.0353 27.5835
78.0506 28.3239
78.0658 29.1326
78.0811 30.0187
78.0964 30.9904
78.1126 32.1354
78.1289 33.4064
78.1452 34.8240
78.1615 36.4093
78.1727 37.6119
78.1839 38.9163
78.1951 40.3370
78.2063 41.8847
78.2175 43.5778
78.2287 45.4306
78.2399 47.4663
78.2511 49.7039
78.2623 52.1727
78.2734 54.8969
78.2846 57.9138
78.2958 61.2539
78.3070 64.9634
78.3182 69.0803
78.3294 73.6567
78.3406 78.7464
78.3472 82.0228
78.3538 85.5122
78.3605 89.2281
78.3671 93.1785
78.3737 97.3897
78.3803 101.864
78.3869 106.631
78.3935 111.692
78.4002 117.078
78.4068 122.790
78.4134 128.861
78.4200 135.292
78.4266 142.117
78.4332 149.334
78.4398 156.981
78.4465 165.050
78.4521 172.239
78.4577 179.761
78.4633 187.624
78.4688 195.822
78.4744 204.393
78.4800 213.330
78.4856 222.639
78.4912 232.309
78.5024 252.837
78.5136 274.907
78.5248 298.568
78.5360 323.770
78.5442 343.090
78.5523 363.175
78.5604 384.020
78.5686 405.588
78.5767 427.834
78.5849 450.705
78.6011 498.069
78.6235 565.757
78.6459 634.593
78.6683 702.227
78.6907 766.032
78.7020 795.783
78.7132 823.531
78.7245 848.946
78.7357 871.697
78.7486 894.141
78.7614 912.365
78.7743 926.082
78.7871 935.060
78.8000 939.152
78.8086 939.130
78.8225 934.411
78.8365 924.013
78.8504 908.155
78.8643 887.198
78.8731 871.501
78.8819 854.063
78.8996 814.547
78.9119 783.586
78.9243 750.507
78.9367 715.766
78.9491 679.850
78.9831 578.365
79.0001 528.084
79.0171 479.319
79.0342 432.710
79.0427 410.401
79.0512 388.828
79.0597 368.035
79.0682 348.056
79.0767 328.916
79.0852 310.653
79.0984 284.100
79.1049 271.590
79.1115 259.612
79.1181 248.124
79.1247 237.155
79.1312 226.662
79.1378 216.668
79.1444 207.130
79.1510 198.065
79.1575 189.433
79.1641 181.245
79.1707 173.463
79.1773 166.094
79.1838 159.101
79.1904 152.490
79.1989 144.452
79.2074 136.976
79.2159 130.027
79.2244 123.574
79.2330 117.584
79.2415 112.025
79.2500 106.867
79.2585 102.089
79.2670 97.6498
79.2755 93.5309
79.2840 89.7076
79.2925 86.1570
79.3010 82.8578
79.3095 79.7900
79.3180 76.9351
79.3265 74.2790
79.3366 71.3663
79.3467 68.6811
79.3567 66.2019
79.3668 63.9113
79.3768 61.7871
79.3869 59.8178
79.3969 57.9852
79.4070 56.2804
79.4171 54.6885
79.4271 53.2012
79.4372 51.8093
79.4472 50.5060
79.4573 49.2814
79.4673 48.1315
79.4874 46.0285
79.5045 44.4311
79.5215 42.9802
79.5385 41.6594
79.5555 40.4558
79.5725 39.3567
79.5896 38.3532
79.6066 37.4374
79.6236 36.6031
79.6406 35.8438
79.6576 35.1555
79.6746 34.5347
79.6917 33.9790
79.7087 33.4860
79.7257 33.0548
79.7427 32.6853
79.7597 32.3784
79.7737 32.1746
79.7876 32.0155
79.8015 31.9029
79.8154 31.8398
79.8294 31.8298
79.8433 31.8775
79.8572 31.9889
79.8711 32.1711
79.8850 32.4335
79.8990 32.7866
79.9129 33.2446
79.9268 33.8233
79.9407 34.5435
79.9547 35.4285
79.9686 36.5074
79.9755 37.1302
79.9825 37.8148
79.9910 38.7439
79.9995 39.7840
80.0080 40.9468
80.0165 42.2451
80.0251 43.6928
80.0336 45.3051
80.0421 47.0983
80.0506 49.0877
80.0591 51.2970
80.0676 53.7443
80.0761 56.4511
80.0846 59.4404
80.0931 62.7362
80.1016 66.3634
80.1101 70.3483
80.1186 74.7121
80.1252 78.3709
80.1318 82.2886
80.1384 86.4782
80.1450 90.9453
80.1515 95.7163
80.1581 100.789
80.1647 106.191
80.1713 111.918
80.1778 117.997
80.1844 124.422
80.1910 131.220
80.1976 138.380
80.2041 145.930
80.2107 153.855
80.2173 162.181
80.2239 170.888
80.2331 183.857
80.2424 197.608
80.2509 210.896
80.2594 224.816
80.2679 239.347
80.2765 254.459
80.2850 270.115
80.2935 286.270
80.3020 302.873
80.3105 319.842
80.3205 340.332
80.3306 361.124
80.3507 403.127
80.3677 438.325
80.3847 472.323
80.4018 504.250
80.4188 533.237
80.4304 550.879
80.4420 566.524
80.4548 581.195
80.4676 592.908
80.4757 598.724
80.4838 603.223
80.4919 606.381
80.5000 608.177
80.5089 608.571
80.5177 607.332
80.5266 604.474
80.5354 600.027
80.5443 594.035
80.5576 582.251
80.5709 567.352
80.5839 550.050
80.5969 530.374
80.6081 511.732
80.6193 491.837
80.6306 470.919
80.6418 449.222
80.6548 423.432
80.6678 397.285
80.6938 345.274
80.7092 315.471
80.7246 286.853
80.7399 259.731
80.7476 246.799
80.7553 234.339
80.7683 214.316
80.7748 204.824
80.7813 195.703
80.7878 186.927
80.7943 178.523
80.8008 170.476
80.8073 162.784
80.8139 155.430
80.8204 148.431
80.8269 141.770
80.8334 135.439
80.8399 129.421
80.8464 123.723
80.8529 118.328
80.8594 113.225
80.8659 108.396
80.8724 103.845
80.8789 99.5462
80.8854 95.5021
80.8919 91.6886
80.8984 88.1063
80.9049 84.7380
80.9114 81.5726
80.9179 78.5950
80.9244 75.8038
80.9309 73.1801
80.9374 70.7222
80.9439 68.4128
80.9504 66.2499
80.9569 64.2210
80.9634 62.3177
80.9699 60.5294
80.9764 58.8539
80.9829 57.2789
80.9894 55.8024
80.9960 54.4134
81.0025 53.1101
81.0090 51.8847
81.0155 50.7318
81.0220 49.6449
81.0285 48.6226
81.0350 47.6589
81.0415 46.7499
81.0545 45.0797
81.0675 43.5881
81.0805 42.2498
81.0935 41.0467
81.1065 39.9626
81.1195 38.9844
81.1325 38.0993
81.1455 37.2994
81.1585 36.5760
81.1715 35.9244
81.1857 35.2892
81.1999 34.7297
81.2141 34.2439
81.2283 33.8315
81.2425 33.4942
81.2567 33.2354
81.2709 33.0605
81.2850 32.9773
81.2957 32.9809
81.3063 33.0468
81.3170 33.1808
81.3276 33.3899
81.3383 33.6819
81.3489 34.0654
81.3595 34.5503
81.3702 35.1472
81.3808 35.8685
81.3915 36.7254
81.4021 37.7320
81.4127 38.9024
81.4234 40.2513
81.4340 41.7939
81.4447 43.5454
81.4553 45.5211
81.4618 46.8469
81.4683 48.2632
81.4748 49.7775
81.4813 51.3882
81.4878 53.1028
81.4943 54.9187
81.5008 56.8406
81.5073 58.8704
81.5138 61.0130
81.5203 63.2629
81.5269 65.6277
81.5334 68.1003
81.5464 73.3817
81.5594 79.0927
81.5747 86.3760
81.5901 94.1836
81.6055 102.440
81.6208 111.045
81.6339 118.511
81.6469 126.056
81.6599 133.582
81.6729 140.983
81.6906 150.694
81.7084 159.700
81.7154 163.040
81.7285 168.704
81.7415 173.682
81.7524 177.260
81.7633 180.244
81.7711 182.014
81.7790 183.442
81.7895 184.800
81.8000 185.520
81.8105 185.592
81.8210 185.019
81.8355 183.175
81.8501 180.156
81.8649 175.951
81.8797 170.714
81.8945 164.565
81.9093 157.654
81.9295 147.271
81.9497 136.156
81.9645 127.758
81.9793 119.327
81.9941 110.989
82.0089 102.861
82.0264 93.6545
82.0351 89.2542
82.0439 85.0117
82.0526 80.9275
82.0614 77.0147
82.0701 73.2793
82.0789 69.7292
82.0863 66.8627
82.0937 64.1317
82.1011 61.5318
82.1085 59.0619
82.1159 56.7169
82.1233 54.5007
82.1307 52.4072
82.1381 50.4329
82.1455 48.5715
82.1529 46.8241
82.1603 45.1837
82.1677 43.6458
82.1751 42.2058
82.1825 40.8588
82.1899 39.6003
82.1973 38.4253
82.2023 37.6691
82.2074 36.9481
82.2124 36.2610
82.2175 35.6075
82.2276 34.3894
82.2377 33.2854
82.2478 32.2831
82.2579 31.3747
82.2680 30.5503
82.2780 29.8014
82.2881 29.1197
82.2982 28.4996
82.3083 27.9338
82.3184 27.4167
82.3285 26.9425
82.3386 26.5074
82.3487 26.1068
82.3588 25.7370
82.3736 25.2429
82.3884 24.7992
82.4032 24.3976
82.4180 24.0324
82.4328 23.6980
82.4476 23.3905
82.4624 23.1060
82.4772 22.8416
82.4920 22.5947
82.5068 22.3635
82.5216 22.1460
82.5364 21.9409
82.5660 21.5628
82.5956 21.2214
82.6239 20.9238
82.6522 20.6499
82.6804 20.3965
82.7087 20.1608
82.7370 19.9408
82.7652 19.7345
82.7935 19.5406
82.8217 19.3578
82.8500 19.1848
82.8783 19.0208
82.9348 18.7167
82.9913 18.4399
83.0478 18.1863
83.0963 17.9848
83.1447 17.7961
83.1932 17.6188
83.2416 17.4517
83.2901 17.2937
83.3385 17.1439
83.3870 17.0015
83.4354 16.8658
83.5323 16.6126
83.6292 16.3803
83.7261 16.1661
83.8230 15.9674
83.8984 15.8224
83.9737 15.6849
84.0491 15.5542
84.1245 15.4298
84.1998 15.3112
84.2752 15.1979
84.3505 15.0898
84.4259 14.9863
84.5443 14.8328
84.6628 14.6898
84.7812 14.5569
84.8996 14.4341
84.9588 14.3765
85.0180 14.3216
85.0773 14.2694
85.1365 14.2201
85.1957 14.1739
85.2549 14.1309
85.3141 14.0914
85.3733 14.0557
85.4379 14.0216
85.5025 13.9932
85.5671 13.9712
85.6317 13.9567
85.6963 13.9508
85.7609 13.9550
85.8255 13.9713
85.8578 13.9847
85.8901 14.0019
85.9466 14.0429
85.9749 14.0692
86.0032 14.0998
86.0314 14.1351
86.0597 14.1757
86.0879 14.2220
86.1162 14.2748
86.1445 14.3346
86.1727 14.4022
86.2010 14.4786
86.2293 14.5648
86.2575 14.6619
86.2858 14.7714
86.3140 14.8949
86.3423 15.0342
86.3719 15.1995
86.4015 15.3877
86.4311 15.6022
86.4607 15.8473
86.4903 16.1285
86.5199 16.4521
86.5347 16.6325
86.5495 16.8266
86.5643 17.0359
86.5791 17.2621
86.5940 17.5069
86.6088 17.7723
86.6236 18.0608
86.6384 18.3750
86.6532 18.7185
86.6680 19.0947
86.6828 19.5083
86.6976 19.9648
86.7124 20.4711
86.7272 21.0344
86.7420 21.6649
86.7568 22.3734
86.7716 23.1747
86.7864 24.0849
86.7938 24.5872
86.8012 25.1249
86.8086 25.7013
86.8160 26.3198
86.8234 26.9854
86.8308 27.7005
86.8382 28.4708
86.8456 29.3014
86.8530 30.1992
86.8604 31.1679
86.8678 32.2152
86.8752 33.3485
86.8826 34.5773
86.8900 35.9067
86.8974 37.3475
86.9048 38.9094
86.9122 40.6031
86.9196 42.4397
86.9270 44.4313
86.9344 46.5907
86.9418 48.9347
86.9492 51.4713
86.9566 54.2185
86.9640 57.1923
86.9715 60.4135
86.9789 63.8907
86.9863 67.6457
86.9937 71.6969
87.0011 76.0691
87.0085 80.7695
87.0159 85.8231
87.0233 91.2495
87.0307 97.0678
87.0381 103.297
87.0455 109.957
87.0529 117.064
87.0583 122.533
87.0636 128.244
87.0690 134.214
87.0744 140.448
87.0845 152.881
87.0946 166.279
87.1047 180.689
87.1148 196.097
87.1249 212.537
87.1350 229.969
87.1451 248.388
87.1551 267.762
87.1626 282.571
87.1700 297.826
87.1848 329.611
87.1996 362.882
87.2144 397.242
87.2372 451.547
87.2601 505.622
87.2749 539.523
87.2897 571.853
87.3045 602.018
87.3193 629.379
87.3341 653.392
87.3489 673.546
87.3574 683.192
87.3659 691.353
87.3744 697.968
87.3829 702.986
87.3914 706.407
87.4000 708.142
87.4057 708.360
87.4150 707.106
87.4243 703.881
87.4336 698.718
87.4429 691.668
87.4566 677.878
87.4704 660.382
87.4840 639.827
87.4975 616.401
87.5160 580.555
87.5345 541.295
87.5481 510.980
87.5616 479.904
87.5888 417.212
87.6023 386.351
87.6159 356.292
87.6295 327.273
87.6430 299.566
87.6541 277.974
87.6652 257.444
87.6763 238.032
87.6874 219.771
87.6985 202.679
87.7096 186.757
87.7207 171.992
87.7263 165.036
87.7318 158.370
87.7386 150.572
87.7454 143.185
87.7522 136.185
87.7590 129.562
87.7657 123.295
87.7725 117.387
87.7793 111.818
87.7861 106.573
87.7929 101.630
87.7997 96.9910
87.8064 92.6340
87.8132 88.5452
87.8200 84.7052
87.8268 81.1118
87.8336 77.7459
87.8403 74.5946
87.8490 70.8701
87.8576 67.4528
87.8663 64.3109
87.8749 61.4294
87.8835 58.7805
87.8922 56.3504
87.9008 54.1175
87.9094 52.0647
87.9181 50.1739
87.9267 48.4347
87.9353 46.8315
87.9439 45.3518
87.9526 43.9827
87.9612 42.7171
87.9698 41.5439
87.9785 40.4546
87.9853 39.6514
87.9920 38.8929
88.0056 37.4933
88.0192 36.2332
88.0327 35.0944
88.0463 34.0588
88.0599 33.1146
88.0734 32.2486
88.0870 31.4524
88.1006 30.7165
88.1141 30.0350
88.1277 29.4009
88.1413 28.8100
88.1548 28.2571
88.1684 27.7391
88.1820 27.2520
88.1955 26.7937
88.2091 26.3610
88.2227 25.9520
88.2362 25.5648
88.2498 25.1979
88.2769 24.5180
88.3041 23.9018
88.3312 23.3407
88.3583 22.8277
88.3854 22.3568
88.4126 21.9231
88.4385 21.5399
88.4644 21.1837
88.4903 20.8516
88.5162 20.5413
88.5421 20.2509
88.5680 19.9783
88.5939 19.7221
88.6198 19.4808
88.6457 19.2531
88.6716 19.0380
88.6975 18.8343
88.7234 18.6414
88.7493 18.4581
88.7752 18.2839
88.8269 17.9603
88.8812 17.6522
88.9355 17.3718
88.9897 17.1152
89.0440 16.8796
89.0983 16.6624
89.1525 16.4613
89.2068 16.2747
89.2610 16.1008
89.3153 15.9383
89.3696 15.7860
89.4238 15.6429
89.4781 15.5080
89.5324 15.3806
89.5866 15.2601
89.6409 15.1458
89.6951 15.0371
89.7494 14.9337
89.8037 14.8350
89.9122 14.6505
90.0207 14.4810
90.1292 14.3243
90.2082 14.2174
90.2871 14.1157
90.3660 14.0189
90.4450 13.9264
90.5239 13.8378
90.6028 13.7528
90.7607 13.5923
90.9185 13.4426
91.0764 13.3021
91.2342 13.1694
91.3921 13.0435
91.5105 12.9529
91.6289 12.8653
91.7473 12.7802
91.8656 12.6975
92.0827 12.5512
92.2997 12.4108
92.5168 12.2753
92.7338 12.1441
92.8424 12.0799
92.9509 12.0165
93.0594 11.9540
93.1679 11.8922
93.2765 11.8312
93.3850 11.7711
93.4935 11.7117
93.6020 11.6531
93.7402 11.5799
93.8783 11.5082
94.0164 11.4384
94.1545 11.3708
94.2927 11.3059
94.4308 11.2444
94.4998 11.2151
94.5689 11.1870
94.6380 11.1603
94.7070 11.1351
94.8156 11.0990
94.9241 11.0682
95.0326 11.0438
95.0869 11.0346
95.1411 11.0275
95.1954 11.0230
95.2497 11.0213
95.3039 11.0228
95.3582 11.0278
95.4125 11.0368
95.4667 11.0503
95.5210 11.0689
95.5752 11.0934
95.6344 11.1276
95.6936 11.1710
95.7528 11.2251
95.8120 11.2915
95.8712 11.3724
95.9304 11.4704
95.9896 11.5885
96.0488 11.7305
96.1031 11.8857
96.1573 12.0693
96.1845 12.1734
96.2116 12.2868
96.2387 12.4102
96.2659 12.5448
96.2930 12.6916
96.3201 12.8519
96.3473 13.0271
96.3744 13.2188
96.4015 13.4289
96.4286 13.6594
96.4558 13.9127
96.4829 14.1915
96.5150 14.5585
96.5470 14.9718
96.5791 15.4390
96.6112 15.9689
96.6432 16.5729
96.6593 16.9067
96.6753 17.2644
96.6913 17.6482
96.7074 18.0608
96.7234 18.5050
96.7394 18.9842
96.7616 19.7128
96.7838 20.5281
96.8060 21.4450
96.8282 22.4817
96.8393 23.0526
96.8504 23.6629
96.8615 24.3166
96.8726 25.0183
96.8837 25.7731
96.8948 26.5870
96.9059 27.4667
96.9170 28.4190
96.9287 29.5149
96.9404 30.7144
96.9522 32.0312
96.9639 33.4798
96.9756 35.0808
96.9873 36.8537
96.9990 38.8225
97.0107 41.0123
97.0225 43.4577
97.0342 46.1922
97.0459 49.2555
97.0518 50.9242
97.0576 52.6891
97.0635 54.5627
97.0693 56.5488
97.0752 58.6546
97.0810 60.8836
97.0869 63.2514
97.0928 65.7626
97.0986 68.4259
97.1045 71.2452
97.1113 74.7314
97.1180 78.4563
97.1248 82.4409
97.1316 86.7019
97.1384 91.2637
97.1452 96.1307
97.1519 101.328
97.1587 106.875
97.1655 112.801
97.1723 119.107
97.1791 125.822
97.1859 132.969
97.1926 140.566
97.1994 148.636
97.2062 157.199
97.2130 166.276
97.2191 174.999
97.2253 184.180
97.2315 193.833
97.2376 203.954
97.2438 214.591
97.2500 225.721
97.2561 237.391
97.2623 249.575
97.2685 262.322
97.2746 275.620
97.2808 289.475
97.2870 303.870
97.2931 318.855
97.2993 334.381
97.3116 367.156
97.3184 386.163
97.3252 405.809
97.3388 447.043
97.3523 490.770
97.3659 536.707
97.3795 584.639
97.3930 634.182
97.4202 736.325
97.4461 834.496
97.4720 929.014
97.4855 975.584
97.4991 1019.21
97.5127 1059.31
97.5262 1095.20
97.5405 1127.95
97.5549 1154.83
97.5645 1169.42
97.5742 1180.96
97.5839 1189.39
97.5936 1194.61
97.6000 1196.30
97.6032 1196.60
97.6137 1195.09
97.6242 1189.79
97.6347 1180.76
97.6452 1168.10
97.6547 1153.52
97.6642 1136.19
97.6738 1116.24
97.6833 1093.84
97.6930 1068.78
97.7027 1041.58
97.7221 981.734
97.7415 916.102
97.7608 846.662
97.7943 723.029
97.8110 661.723
97.8278 602.056
97.8471 535.940
97.8568 504.374
97.8665 473.930
97.8762 444.681
97.8859 416.687
97.8956 389.990
97.9053 364.643
97.9158 338.491
97.9264 313.935
97.9370 290.959
97.9476 269.536
97.9581 249.626
97.9687 231.179
97.9793 214.138
97.9898 198.452
97.9995 185.178
98.0092 172.917
98.0189 161.612
98.0286 151.206
98.0383 141.642
98.0480 132.862
98.0577 124.812
98.0673 117.443
98.0770 110.691
98.0867 104.512
98.0964 98.8602
98.1061 93.6962
98.1158 88.9676
98.1255 84.6411
98.1352 80.6806
98.1448 77.0562
98.1545 73.7298
98.1642 70.6769
98.1739 67.8716
98.1836 65.2904
98.1933 62.9119
98.2030 60.7167
98.2127 58.6871
98.2223 56.8093
98.2320 55.0650
98.2417 53.4436
98.2514 51.9335
98.2611 50.5243
98.2708 49.2070
98.2805 47.9732
98.2902 46.8155
98.2999 45.7284
98.3175 43.9090
98.3351 42.2708
98.3527 40.7872
98.3703 39.4394
98.3879 38.2091
98.4055 37.0837
98.4232 36.0504
98.4408 35.1008
98.4584 34.2255
98.4760 33.4189
98.4936 32.6741
98.5112 31.9872
98.5289 31.3531
98.5465 30.7693
98.5641 30.2321
98.5817 29.7398
98.6099 29.0400
98.6381 28.4447
98.6663 27.9513
98.6944 27.5613
98.7094 27.3975
98.7244 27.2656
98.7394 27.1672
98.7543 27.1047
98.7693 27.0809
98.7843 27.0997
98.7993 27.1656
98.8142 27.2846
98.8292 27.4638
98.8442 27.7120
98.8591 28.0401
98.8741 28.4613
98.8891 28.9918
98.9041 29.6504
98.9116 30.0350
98.9190 30.4602
98.9265 30.9306
98.9340 31.4488
98.9437 32.1990
98.9534 33.0476
98.9631 34.0054
98.9728 35.0847
98.9825 36.2988
98.9921 37.6620
99.0018 39.1900
99.0115 40.8980
99.0212 42.8076
99.0309 44.9367
99.0406 47.3058
99.0503 49.9339
99.0600 52.8493
99.0696 56.0731
99.0793 59.6300
99.0890 63.5408
99.0956 66.4298
99.1022 69.5054
99.1088 72.7757
99.1154 76.2434
99.1221 79.9269
99.1287 83.8226
99.1353 87.9499
99.1419 92.3033
99.1485 96.9029
99.1551 101.748
99.1617 106.846
99.1683 112.191
99.1749 117.807
99.1815 123.678
99.1881 129.825
99.1947 136.233
99.2044 146.130
99.2141 156.608
99.2238 167.659
99.2335 179.259
99.2432 191.412
99.2528 204.081
99.2625 217.234
99.2722 230.815
99.2863 251.290
99.3004 272.412
99.3127 291.279
99.3251 310.340
99.3497 348.350
99.3691 377.299
99.3885 404.579
99.3999 419.589
99.4114 433.566
99.4211 444.493
99.4308 454.492
99.4404 463.479
99.4501 471.374
99.4639 480.623
99.4777 487.385
99.4889 490.954
99.5000 492.784
99.5112 492.857
99.5195 491.758
99.5279 489.682
99.5446 482.665
99.5544 476.848
99.5642 469.834
99.5740 461.687
99.5838 452.490
99.5935 442.306
99.6033 431.242
99.6229 406.820
99.6425 379.980
99.6620 351.553
99.6771 328.965
99.6923 306.249
99.7074 283.706
99.7225 261.618
99.7421 234.101
99.7519 220.913
99.7616 208.183
99.7714 195.920
99.7812 184.178
99.7910 172.965
99.8008 162.297
99.8115 151.280
99.8221 140.937
99.8328 131.255
99.8435 122.223
99.8541 113.822
99.8648 106.045
99.8755 98.8633
99.8862 92.2496
99.8933 88.1385
99.9004 84.2589
99.9075 80.6016
99.9146 77.1622
99.9217 73.9214
99.9289 70.8791
99.9360 68.0173
99.9431 65.3349
99.9502 62.8150
99.9573 60.4558
99.9644 58.2420
99.9715 56.1712
99.9787 54.2295
99.9858 52.4142
99.9929 50.7126
100.000 49.1222
100.009 47.1944
100.019 45.4260
100.028 43.8029
100.037 42.3278
100.046 40.9568
100.056 39.6956
100.065 38.5341
100.074 37.4740
100.084 36.4839
100.093 35.5681
100.102 34.7196
100.111 33.9401
100.121 33.2071
100.130 32.5240
100.139 31.8862
100.148 31.2957
100.157 30.7593
100.166 30.2596
100.184 29.3367
100.202 28.5086
100.219 27.7607
100.237 27.0810
100.255 26.4596
100.272 25.8887
100.290 25.3644
100.308 24.8755
100.325 24.4205
100.343 23.9957
100.361 23.6000
100.378 23.2262
100.396 22.8742
100.414 22.5421
100.431 22.2298
100.455 21.8365
100.479 21.4694
100.502 21.1259
100.526 20.8035
100.549 20.5003
100.573 20.2145
100.597 19.9445
100.620 19.6900
100.667 19.2177
100.714 18.7912
100.762 18.4024
100.809 18.0476
100.863 17.6762
100.917 17.3381
100.970 17.0285
101.024 16.7440
101.078 16.4818
101.132 16.2395
101.186 16.0154
101.240 15.8079
101.314 15.5470
101.388 15.3131
101.462 15.1041
101.536 14.9191
101.611 14.7576
101.685 14.6206
101.759 14.5092
101.796 14.4637
101.833 14.4256
101.894 14.3800
101.954 14.3578
102.015 14.3622
102.045 14.3756
102.076 14.3974
102.106 14.4283
102.136 14.4692
102.167 14.5209
102.197 14.5847
102.227 14.6618
102.257 14.7537
102.288 14.8622
102.318 14.9892
102.355 15.1735
102.392 15.3942
102.429 15.6577
102.466 15.9708
102.485 16.1502
102.503 16.3450
102.522 16.5578
102.540 16.7904
102.559 17.0464
102.578 17.3255
102.596 17.6317
102.615 17.9682
102.630 18.2701
102.645 18.5975
102.660 18.9531
102.675 19.3375
102.690 19.7597
102.706 20.2182
102.721 20.7245
102.736 21.2778
102.751 21.8928
102.766 22.5745
102.781 23.3333
102.797 24.1758
102.812 25.1279
102.827 26.1946
102.842 27.4114
102.857 28.7876
102.866 29.7310
102.876 30.7571
102.885 31.8747
102.894 33.0803
102.904 34.4108
102.913 35.8659
102.922 37.4590
102.931 39.1851
102.941 41.0977
102.950 43.1966
102.959 45.5009
102.968 48.0031
102.978 50.7797
102.987 53.7949
102.996 57.1400
103.005 60.7702
103.014 64.6129
103.023 68.7597
103.032 73.3332
103.041 78.2600
103.050 83.6832
103.059 89.5124
103.067 95.9130
103.076 102.774
103.085 110.286
103.094 118.313
103.103 127.072
103.112 136.398
103.121 146.536
103.129 157.289
103.138 168.794
103.147 181.078
103.156 194.932
103.166 209.705
103.175 225.416
103.184 241.892
103.193 259.498
103.203 277.856
103.212 297.355
103.221 317.561
103.230 337.951
103.239 358.898
103.248 380.838
103.256 403.232
103.274 450.157
103.292 498.845
103.310 551.752
103.329 604.940
103.347 657.916
103.366 708.954
103.384 757.135
103.403 801.242
103.422 840.297
103.431 857.490
103.440 872.801
103.450 886.861
103.459 898.741
103.469 908.599
103.478 916.153
103.489 922.050
103.500 924.932
103.506 925.211
103.517 923.512
103.527 919.226
103.537 912.316
103.547 902.983
103.560 887.069
103.574 867.274
103.588 842.399
103.602 813.943
103.615 785.176
103.628 754.196
103.640 721.406
103.653 687.213
103.679 616.229
103.705 544.316
103.723 496.128
103.740 449.496
103.758 405.017
103.767 383.734
103.775 363.154
103.788 334.332
103.801 307.188
103.814 281.780
103.827 258.133
103.840 236.245
103.846 225.876
103.853 216.092
103.859 206.581
103.866 197.628
103.872 188.946
103.879 180.791
103.886 171.487
103.894 162.828
103.901 154.673
103.909 147.003
103.917 139.707
103.924 132.954
103.932 126.628
103.940 120.707
103.947 115.102
103.955 109.938
103.962 105.122
103.970 100.634
103.978 96.4559
103.985 92.5702
103.993 88.9597
104.000 85.6081
104.010 81.7976
104.019 78.3314
104.029 75.1833
104.038 72.3291
104.047 69.7466
104.057 67.4153
104.066 65.3167
104.076 63.4530
104.085 61.7693
104.094 60.2736
104.104 58.9545
104.113 57.8136
104.122 56.8183
104.132 55.9753
104.141 55.2795
104.151 54.7327
104.163 54.2198
104.175 53.9550
104.188 53.9375
104.200 54.1762
104.212 54.6897
104.225 55.4881
104.237 56.5977
104.249 58.0466
104.262 59.8847
104.274 62.1215
104.280 63.4190
104.286 64.8145
104.292 66.3605
104.298 68.0136
104.305 69.8352
104.311 71.8069
104.317 73.9368
104.323 76.1946
104.329 78.6628
104.335 81.2705
104.342 84.1121
104.348 87.1052
104.354 90.5203
104.361 94.1212
104.367 98.0320
104.374 102.144
104.380 106.597
104.386 111.266
104.393 116.308
104.399 121.581
104.406 127.260
104.412 133.182
104.419 139.543
104.425 146.159
104.432 153.247
104.438 160.597
104.444 168.326
104.451 176.442
104.460 189.079
104.470 202.587
104.479 216.981
104.488 232.271
104.498 248.461
104.507 265.547
104.517 283.520
104.526 302.155
104.539 329.359
104.552 358.044
104.565 388.080
104.578 419.298
104.590 450.232
104.602 481.603
104.615 513.427
104.627 545.445
104.653 611.980
104.666 644.234
104.678 675.322
104.691 704.873
104.704 732.517
104.717 757.900
104.730 780.684
104.744 801.554
104.757 818.877
104.774 835.066
104.791 844.950
104.800 847.634
104.809 848.413
104.819 847.230
104.828 844.117
104.837 839.102
104.846 832.312
104.862 815.779
104.879 794.144
104.895 767.653
104.911 737.228
104.930 696.789
104.949 652.948
104.966 613.567
104.982 573.383
105.014 492.517
105.031 452.760
105.047 414.524
105.063 377.956
105.079 343.365
105.092 317.978
105.104 294.186
105.117 271.656
105.129 250.769
105.142 231.192
105.148 221.955
105.154 213.219
105.161 204.696
105.167 196.653
105.173 188.823
105.179 181.447
105.188 172.184
105.196 163.566
105.204 155.458
105.212 147.841
105.220 140.693
105.228 133.993
105.236 127.720
105.244 121.853
105.252 116.371
105.261 111.251
105.269 106.474
105.277 102.019
105.285 97.8661
105.293 93.9964
105.301 90.3916
105.309 87.0338
105.320 82.8032
105.331 78.9642
105.342 75.4789
105.353 72.3394
105.365 69.4567
105.376 66.8541
105.387 64.4577
105.398 62.2869
105.409 60.2808
105.420 58.4404
105.431 56.7481
105.442 55.2020
105.453 53.7601
105.464 52.4363
105.475 51.1957
105.486 50.0512
105.502 48.4929
105.519 47.0871
105.535 45.8045
105.551 44.6296
105.567 43.5426
105.584 42.5460
105.600 41.6236
105.616 40.7681
105.632 39.9683
105.648 39.2289
105.665 38.5406
105.681 37.9002
105.697 37.3050
105.713 36.7534
105.729 36.2442
105.746 35.7773
105.766 35.2430
105.787 34.7839
105.808 34.4013
105.818 34.2430
105.828 34.1077
105.839 33.9962
105.849 33.9123
105.859 33.8572
105.870 33.8329
105.880 33.8425
105.890 33.8887
105.901 33.9745
105.911 34.1034
105.921 34.2810
105.932 34.5080
105.942 34.7900
105.952 35.1315
105.963 35.5414
105.973 36.0167
105.983 36.5659
105.993 37.1941
106.004 37.9137
106.014 38.7157
106.024 39.6114
106.035 40.6055
106.045 41.7022
106.055 42.9052
106.066 44.2178
106.076 45.6426
106.089 47.5406
106.101 49.5936
106.114 51.8335
106.126 54.2214
106.139 56.7894
106.151 59.4874
106.164 62.3232
106.176 65.2811
106.209 73.4003
106.241 81.7574
106.263 87.3605
106.285 92.6197
106.302 96.1599
106.318 99.3498
106.331 101.657
106.344 103.646
106.359 105.469
106.374 106.811
106.387 107.555
106.400 107.917
106.414 107.867
106.428 107.346
106.431 107.205
106.437 106.816
106.443 106.348
106.454 105.182
106.465 103.882
106.476 102.372
106.486 100.655
106.497 98.7475
106.517 94.4524
106.538 89.5969
106.559 84.3610
106.588 76.8813
106.617 69.4003
106.638 64.0796
106.648 61.5121
106.659 59.0210
106.669 56.6150
106.680 54.3016
106.690 52.0865
106.701 49.9938
106.709 48.3415
106.718 46.7613
106.726 45.2536
106.735 43.8184
106.744 42.4552
106.752 41.1632
106.761 39.9412
106.769 38.8006
106.778 37.7128
106.787 36.6894
106.795 35.7284
106.804 34.8272
106.812 33.9832
106.821 33.1940
106.830 32.4567
106.838 31.7764
106.844 31.3385
106.850 30.9280
106.861 30.1628
106.872 29.4612
106.884 28.8295
106.895 28.2507
106.907 27.7297
106.918 27.2521
106.930 26.8216
106.941 26.4261
106.953 26.0685
106.964 25.7389
106.975 25.4397
106.987 25.1626
106.998 24.9097
107.010 24.6742
107.021 24.4579
107.032 24.2722
107.042 24.0981
107.053 23.9345
107.063 23.7803
107.084 23.4964
107.105 23.2403
107.126 23.0069
107.147 22.7924
107.168 22.5938
107.189 22.4096
107.210 22.2361
107.231 22.0727
107.252 21.9182
107.273 21.7715
107.315 21.4985
107.357 21.2491
107.399 21.0183
107.441 20.8038
107.483 20.6033
107.525 20.4150
107.567 20.2375
107.609 20.0696
107.651 19.9102
107.693 19.7590
107.735 19.6143
107.777 19.4761
107.861 19.2169
107.945 18.9774
108.029 18.7552
108.097 18.5844
108.166 18.4225
108.235 18.2687
108.304 18.1222
108.372 17.9824
108.441 17.8486
108.578 17.5971
108.716 17.3647
108.853 17.1487
108.991 16.9470
109.128 16.7580
109.296 16.5415
109.464 16.3393
109.632 16.1493
109.800 15.9701
109.968 15.8001
110.135 15.6384
110.303 15.4840
110.471 15.3359
110.593 15.2317
110.715 15.1303
110.876 15.0009
111.036 14.8753
111.196 14.7531
111.357 14.6342
111.437 14.5758
111.517 14.5182
111.597 14.4612
111.677 14.4050
111.757 14.3496
111.838 14.2949
111.918 14.2411
111.998 14.1883
112.082 14.1340
112.166 14.0812
112.250 14.0298
112.334 13.9805
112.418 13.9336
112.460 13.9112
112.502 13.8897
112.544 13.8691
112.586 13.8496
112.628 13.8313
112.669 13.8145
112.727 13.7941
112.784 13.7775
112.841 13.7652
112.898 13.7585
112.927 13.7576
112.956 13.7585
112.984 13.7616
113.013 13.7671
113.042 13.7753
113.070 13.7864
113.099 13.8010
113.127 13.8195
113.169 13.8548
113.190 13.8766
113.211 13.9017
113.232 13.9303
113.253 13.9630
113.274 14.0000
113.295 14.0420
113.316 14.0897
113.337 14.1436
113.358 14.2048
113.379 14.2742
113.400 14.3531
113.421 14.4429
113.442 14.5456
113.463 14.6628
113.476 14.7405
113.488 14.8252
113.501 14.9177
113.513 15.0189
113.525 15.1300
113.538 15.2522
113.550 15.3869
113.563 15.5361
113.575 15.7015
113.587 15.8857
113.600 16.0914
113.612 16.3217
113.625 16.5804
113.637 16.8717
113.649 17.2007
113.662 17.5731
113.672 17.9272
113.683 18.3216
113.693 18.7615
113.704 19.2525
113.714 19.8009
113.725 20.4137
113.735 21.0985
113.746 21.8638
113.756 22.7189
113.767 23.6737
113.777 24.7392
113.788 25.9270
113.798 27.2498
113.809 28.7210
113.819 30.3546
113.830 32.1474
113.837 33.4985
113.844 34.9453
113.851 36.4931
113.858 38.1236
113.866 39.8880
113.873 41.7426
113.880 43.7449
113.887 45.8447
113.894 48.1061
113.901 50.5060
113.909 53.0492
113.916 55.7022
113.923 58.5445
113.930 61.5012
113.937 64.6596
113.944 67.9355
113.955 73.0802
113.965 78.5899
113.976 84.4700
113.986 90.7228
113.997 97.3474
114.007 104.339
114.018 111.689
114.028 119.310
114.038 127.019
114.048 134.932
114.058 143.101
114.068 151.498
114.078 160.181
114.088 168.941
114.108 186.791
114.129 205.681
114.150 224.181
114.171 241.969
114.192 258.438
114.204 266.713
114.215 274.295
114.226 280.668
114.236 286.401
114.247 291.443
114.257 295.716
114.268 299.353
114.279 302.122
114.289 304.048
114.300 305.080
114.314 305.126
114.329 303.391
114.345 299.764
114.358 295.636
114.370 290.490
114.383 284.313
114.395 277.281
114.406 270.556
114.417 263.286
114.438 247.366
114.463 227.207
114.488 206.004
114.515 182.483
114.542 159.647
114.554 149.523
114.567 139.818
114.579 130.496
114.592 121.594
114.604 113.142
114.616 105.159
114.629 97.6584
114.641 90.6458
114.654 84.0693
114.666 78.0275
114.672 75.1832
114.678 72.4543
114.685 69.8385
114.691 67.3338
114.697 64.9376
114.703 62.6472
114.709 60.4599
114.716 58.3729
114.722 56.3831
114.728 54.4875
114.734 52.6829
114.740 50.9662
114.751 48.3248
114.761 45.8985
114.771 43.6731
114.781 41.6539
114.791 39.7873
114.801 38.0972
114.812 36.5376
114.822 35.1273
114.832 33.8271
114.842 32.6408
114.852 31.5584
114.862 30.5798
114.873 29.6769
114.883 28.8596
114.893 28.1042
114.903 27.4191
114.916 26.6487
114.928 25.9597
114.940 25.3368
114.953 24.7721
114.965 24.2547
114.978 23.7867
114.990 23.3584
115.002 22.9653
115.015 22.6005
115.027 22.2663
115.040 21.9565
115.052 21.6685
115.065 21.4001
115.077 21.1492
115.089 20.9140
115.102 20.6930
115.122 20.3571
115.142 20.0526
115.163 19.7738
115.183 19.5177
115.203 19.2803
115.224 19.0618
115.244 18.8592
115.264 18.6709
115.285 18.4947
115.305 18.3313
115.325 18.1789
115.346 18.0365
115.366 17.9035
115.386 17.7792
115.407 17.6631
115.427 17.5549
115.463 17.3803
115.499 17.2274
115.522 17.1422
115.544 17.0648
115.567 16.9952
115.589 16.9332
115.612 16.8790
115.635 16.8327
115.657 16.7944
115.680 16.7647
115.702 16.7437
115.725 16.7321
115.748 16.7307
115.770 16.7403
115.793 16.7623
115.815 16.7980
115.838 16.8496
115.860 16.9189
115.885 17.0206
115.898 17.0826
115.910 17.1533
115.923 17.2344
115.935 17.3257
115.947 17.4292
115.960 17.5465
115.972 17.6806
115.985 17.8315
115.997 18.0026
116.009 18.1969
116.022 18.4177
116.034 18.6689
116.047 18.9549
116.059 19.2809
116.070 19.6176
116.082 19.9975
116.093 20.4261
116.104 20.9098
116.116 21.4558
116.127 22.0717
116.138 22.7664
116.149 23.5421
116.161 24.4230
116.166 24.9084
116.172 25.4141
116.178 25.9596
116.183 26.5275
116.189 27.1398
116.195 27.7766
116.200 28.4627
116.206 29.1756
116.212 29.9429
116.217 30.7395
116.223 31.5959
116.228 32.4840
116.234 33.4206
116.240 34.4076
116.246 35.5809
116.252 36.8034
116.258 38.0962
116.265 39.4621
116.271 40.9040
116.277 42.4248
116.283 44.0275
116.289 45.7148
116.296 47.5189
116.302 49.3853
116.308 51.3445
116.314 53.3991
116.320 55.5515
116.327 57.8039
116.339 62.6172
116.352 67.8974
116.364 73.5711
116.376 79.6854
116.389 86.2421
116.401 93.2371
116.414 100.660
116.426 108.495
116.438 116.716
116.449 123.747
116.459 130.997
116.479 145.973
116.491 155.396
116.504 164.952
116.529 184.167
116.554 203.057
116.578 220.771
116.595 231.908
116.612 241.911
116.625 248.453
116.637 254.234
116.650 259.513
116.664 263.743
116.679 267.348
116.694 269.414
116.700 269.783
116.709 269.951
116.725 268.881
116.742 265.997
116.756 262.291
116.770 257.452
116.784 251.651
116.797 244.914
116.816 234.388
116.835 222.581
116.849 213.218
116.862 203.512
116.890 183.340
116.917 162.894
116.945 142.959
116.956 135.041
116.967 127.423
116.978 120.063
116.989 112.986
117.001 106.154
117.012 99.7015
117.023 93.5790
117.034 87.7924
117.041 84.3960
117.048 81.1282
117.055 77.9884
117.062 75.0184
117.069 72.1295
117.076 69.4038
117.082 66.7590
117.089 64.2696
117.096 61.8597
117.103 59.5964
117.110 57.4101
117.117 55.3610
117.124 53.3857
117.130 51.5378
117.137 49.7596
117.144 48.0991
117.153 46.0799
117.162 44.2205
117.170 42.4706
117.179 40.8627
117.188 39.3523
117.197 37.9666
117.205 36.6812
117.214 35.4892
117.223 34.3722
117.231 33.3495
117.240 32.4019
117.249 31.5241
117.258 30.7017
117.266 29.9486
117.275 29.2503
117.284 28.6027
117.291 28.1223
117.298 27.6693
117.304 27.2419
117.311 26.8441
117.318 26.4627
117.325 26.1072
117.332 25.7658
117.339 25.4472
117.352 24.8544
117.366 24.3200
117.380 23.8365
117.393 23.3975
117.407 22.9945
117.421 22.6285
117.435 22.2922
117.448 21.9821
117.462 21.6950
117.476 21.4284
117.489 21.1799
117.503 20.9477
117.518 20.7100
117.533 20.4878
117.548 20.2795
117.563 20.0849
117.578 19.9003
117.593 19.7271
117.608 19.5620
117.623 19.4064
117.653 19.1161
117.683 18.8533
117.713 18.6132
117.743 18.3930
117.770 18.2058
117.797 18.0321
117.825 17.8701
117.852 17.7183
117.880 17.5754
117.907 17.4416
117.935 17.3153
117.962 17.1961
117.989 17.0829
118.017 16.9760
118.044 16.8744
118.072 16.7778
118.127 16.5977
118.181 16.4336
118.216 16.3360
118.251 16.2437
118.286 16.1561
118.321 16.0727
118.356 15.9932
118.391 15.9172
118.461 15.7751
118.530 15.6445
118.600 15.5238
118.670 15.4117
118.740 15.3072
118.795 15.2298
118.850 15.1561
118.905 15.0858
118.959 15.0188
119.069 14.8931
119.179 14.7772
119.288 14.6696
119.398 14.5693
119.508 14.4752
119.618 14.3866
119.717 14.3102
119.817 14.2374
119.917 14.1676
120.017 14.1007
120.116 14.0362
120.216 13.9741
120.415 13.8559
120.615 13.7445
120.814 13.6388
121.014 13.5378
121.213 13.4408
121.373 13.3655
121.532 13.2921
121.752 13.1935
121.971 13.0974
122.191 13.0030
122.410 12.9101
122.630 12.8180
122.849 12.7267
123.068 12.6357
123.288 12.5447
123.457 12.4743
123.627 12.4037
123.797 12.3329
123.966 12.2618
124.051 12.2262
124.136 12.1906
124.220 12.1550
124.305 12.1194
124.390 12.0838
124.475 12.0484
124.560 12.0131
124.644 11.9781
124.749 11.9353
124.854 11.8934
124.958 11.8527
125.011 11.8330
125.063 11.8138
125.116 11.7952
125.168 11.7773
125.220 11.7603
125.273 11.7443
125.325 11.7295
125.377 11.7162
125.430 11.7045
125.482 11.6950
125.537 11.6877
125.592 11.6837
125.647 11.6838
125.701 11.6889
125.756 11.7003
125.784 11.7089
125.811 11.7196
125.839 11.7329
125.866 11.7489
125.893 11.7681
125.921 11.7910
125.961 11.8320
125.981 11.8565
126.001 11.8839
126.021 11.9150
126.041 11.9497
126.061 11.9891
126.080 12.0333
126.100 12.0835
126.120 12.1402
126.140 12.2050
126.160 12.2788
126.180 12.3640
126.200 12.4620
126.220 12.5767
126.240 12.7103
126.254 12.8168
126.268 12.9357
126.281 13.0699
126.295 13.2218
126.309 13.3942
126.322 13.5905
126.336 13.8145
126.350 14.0708
126.364 14.3669
126.370 14.5310
126.377 14.7043
126.384 14.8927
126.391 15.0918
126.398 15.3084
126.405 15.5371
126.412 15.7860
126.418 16.0489
126.425 16.3349
126.432 16.6368
126.439 16.9650
126.446 17.3115
126.453 17.6879
126.459 18.0849
126.468 18.6396
126.477 19.2369
126.486 19.8864
126.494 20.5920
126.503 21.3670
126.512 22.1979
126.521 23.0974
126.529 24.0700
126.538 25.1326
126.547 26.2656
126.555 27.4852
126.564 28.7959
126.573 30.2188
126.582 31.7262
126.590 33.3377
126.599 35.0574
126.606 36.5008
126.613 38.0164
126.620 39.6058
126.627 41.2459
126.633 42.9861
126.640 44.7772
126.654 48.6179
126.668 52.8039
126.681 57.2745
126.695 62.0541
126.709 67.1330
126.728 74.5191
126.746 82.3749
126.765 90.6209
126.784 99.1556
126.811 111.923
126.838 124.592
126.856 132.395
126.873 139.808
126.890 146.198
126.906 152.022
126.920 156.429
126.933 160.300
126.946 163.453
126.959 166.030
126.973 168.089
126.987 169.439
127.000 170.068
127.013 170.040
127.029 169.171
127.044 167.419
127.055 165.647
127.066 163.480
127.080 160.157
127.094 156.252
127.116 149.091
127.137 140.920
127.159 131.884
127.181 122.373
127.215 107.268
127.232 99.7496
127.248 92.4451
127.270 83.3113
127.281 78.9717
127.292 74.7898
127.303 70.7781
127.314 66.9466
127.325 63.3034
127.336 59.8543
127.344 57.3019
127.353 54.8991
127.361 52.6155
127.369 50.4513
127.378 48.3824
127.386 46.4566
127.395 44.6477
127.403 42.9542
127.412 41.3564
127.420 39.8899
127.428 38.5333
127.437 37.2845
127.445 36.1414
127.454 35.1019
127.462 34.1642
127.470 33.3262
127.476 32.7878
127.482 32.3066
127.488 31.8657
127.494 31.4795
127.500 31.1344
127.506 30.8417
127.512 30.5948
127.518 30.3938
127.529 30.1409
127.540 30.0472
127.551 30.1106
127.562 30.3334
127.572 30.7185
127.583 31.2700
127.594 31.9931
127.605 32.8936
127.616 33.9783
127.627 35.2547
127.638 36.7311
127.649 38.4161
127.660 40.3189
127.671 42.4486
127.681 44.8145
127.692 47.4258
127.704 50.5669
127.716 54.0209
127.728 57.7968
127.740 61.9018
127.752 66.3409
127.764 71.1166
127.776 76.2281
127.788 81.6716
127.799 86.9917
127.809 92.5276
127.820 98.3142
127.831 104.336
127.842 110.575
127.853 117.008
127.875 130.352
127.889 139.103
127.903 147.891
127.930 165.509
127.954 180.173
127.976 192.786
127.998 204.233
128.010 209.859
128.021 214.976
128.032 219.173
128.043 222.864
128.053 225.673
128.062 228.046
128.076 230.620
128.089 232.261
128.100 232.904
128.114 232.862
128.130 231.522
128.146 228.817
128.165 224.225
128.183 218.101
128.202 210.599
128.220 201.902
128.238 192.213
128.257 181.806
128.272 172.795
128.287 163.592
128.317 144.828
128.335 133.453
128.354 122.358
128.372 111.682
128.390 101.594
128.403 95.0022
128.416 88.7726
128.428 82.8210
128.441 77.2520
128.453 71.9821
128.466 67.0959
128.478 62.5476
128.491 58.3310
128.500 55.4343
128.509 52.7080
128.518 50.1471
128.528 47.7460
128.537 45.4988
128.546 43.3992
128.555 41.4406
128.564 39.6355
128.573 37.9376
128.583 36.3605
128.592 34.8976
128.601 33.5421
128.610 32.2875
128.619 31.1274
128.629 30.0556
128.638 29.0763
128.645 28.3647
128.652 27.6961
128.659 27.0682
128.666 26.4785
128.673 25.9250
128.680 25.4053
128.687 24.9176
128.695 24.4598
128.702 24.0300
128.709 23.6266
128.716 23.2479
128.723 22.8923
128.737 22.2446
128.751 21.6729
128.766 21.1677
128.780 20.7207
128.794 20.3248
128.808 19.9739
128.822 19.6624
128.837 19.3861
128.851 19.1410
128.865 18.9238
128.878 18.7421
128.892 18.5822
128.910 18.3916
128.928 18.2339
128.947 18.1066
128.965 18.0084
128.984 17.9384
129.002 17.8966
129.020 17.8836
129.039 17.9005
129.057 17.9496
129.076 18.0338
129.094 18.1573
129.112 18.3242
129.131 18.5433
129.149 18.8224
129.167 19.1725
129.177 19.3783
129.186 19.6046
129.197 19.9085
129.208 20.2521
129.218 20.6400
129.229 21.0733
129.240 21.5658
129.251 22.1203
129.262 22.7442
129.273 23.4388
129.284 24.2259
129.295 25.1093
129.305 26.1000
129.316 27.1990
129.327 28.4397
129.338 29.8129
129.349 31.3591
129.360 33.0658
129.369 34.6695
129.378 36.4226
129.387 38.3365
129.396 40.4233
129.406 42.6952
129.415 45.1651
129.424 47.8460
129.433 50.7183
129.442 53.8586
129.452 57.2500
129.461 60.9060
129.470 64.8396
129.479 69.0639
129.488 73.5913
129.498 78.4335
129.507 83.5436
129.518 90.5973
129.530 98.2115
129.542 106.400
129.553 115.173
129.565 124.534
129.577 134.482
129.589 145.009
129.600 156.102
129.614 169.473
129.627 183.405
129.640 198.047
129.654 213.109
129.670 232.636
129.687 252.657
129.704 272.941
129.720 293.229
129.739 315.245
129.757 336.519
129.776 356.635
129.794 375.179
129.807 386.764
129.819 397.224
129.837 410.455
129.847 416.431
129.857 421.533
129.873 428.026
129.889 432.176
129.900 433.681
129.909 433.962
129.926 432.328
129.943 427.856
129.955 423.243
129.967 417.414
129.981 408.660
129.995 398.290
130.007 389.119
130.018 379.131
130.041 357.048
130.063 332.776
130.086 307.066
130.119 268.575
130.135 249.480
130.152 230.750
130.174 205.884
130.185 193.979
130.197 182.481
130.208 171.425
130.219 160.837
130.231 150.739
130.242 141.227
130.253 132.140
130.264 123.567
130.276 115.509
130.287 107.957
130.298 100.903
130.310 94.3342
130.321 88.2335
130.332 82.5834
130.343 77.5858
130.354 72.9629
130.365 68.6952
130.375 64.7629
130.386 61.1458
130.397 57.8238
130.408 54.7772
130.419 52.0111
130.429 49.4552
130.440 47.1182
130.451 44.9828
130.462 43.0496
130.472 41.2670
130.483 39.6392
130.494 38.1523
130.505 36.8057
130.516 35.5075
130.527 34.3243
130.539 33.2446
130.550 32.2580
130.561 31.3550
130.573 30.5270
130.584 29.7665
130.595 29.0663
130.606 28.4202
130.618 27.8228
130.629 27.2689
130.640 26.7543
130.652 26.2749
130.663 25.8273
130.674 25.4083
130.686 25.0152
130.705 24.3906
130.725 23.8253
130.744 23.3105
130.764 22.8392
130.783 22.4053
130.803 22.0043
130.822 21.6321
130.842 21.2853
130.861 20.9613
130.881 20.6576
130.900 20.3721
130.920 20.1033
130.939 19.8495
130.959 19.6094
130.978 19.3819
130.998 19.1659
131.020 18.9289
131.043 18.7048
131.065 18.4927
131.088 18.2916
131.133 17.9187
131.178 17.5802
131.224 17.2713
131.269 16.9881
131.314 16.7272
131.359 16.4860
131.398 16.2914
131.437 16.1089
131.476 15.9369
131.515 15.7745
131.554 15.6208
131.593 15.4751
131.632 15.3366
131.671 15.2050
131.710 15.0792
131.749 14.9596
131.827 14.7361
131.905 14.5316
131.983 14.3439
132.027 14.2466
132.070 14.1540
132.113 14.0655
132.156 13.9813
132.199 13.9010
132.242 13.8250
132.285 13.7530
132.328 13.6850
132.372 13.6209
132.415 13.5613
132.458 13.5059
132.501 13.4553
132.544 13.4096
132.587 13.3694
132.630 13.3350
132.674 13.3071
132.719 13.2855
132.764 13.2730
132.809 13.2707
132.854 13.2803
132.899 13.3038
132.945 13.3436
132.967 13.3707
132.990 13.4031
133.012 13.4415
133.035 13.4861
133.056 13.5357
133.078 13.5925
133.100 13.6574
133.121 13.7310
133.143 13.8149
133.164 13.9102
133.186 14.0182
133.207 14.1400
133.229 14.2789
133.251 14.4367
133.272 14.6166
133.294 14.8211
133.315 15.0568
133.337 15.3272
133.358 15.6419
133.380 16.0073
133.391 16.2239
133.403 16.4599
133.414 16.7178
133.425 17.0000
133.436 17.3094
133.448 17.6495
133.459 18.0240
133.470 18.4373
133.482 18.8941
133.493 19.3999
133.504 19.9610
133.516 20.5843
133.527 21.2775
133.538 22.0494
133.549 22.9097
133.561 23.8603
133.572 24.9299
133.583 26.1238
133.595 27.4564
133.606 28.9436
133.617 30.6027
133.628 32.4523
133.640 34.5128
133.651 36.8058
133.662 39.3544
133.674 42.1832
133.685 45.3181
133.696 48.7862
133.708 52.6155
133.719 56.8350
133.730 61.4742
133.741 66.5630
133.748 69.5568
133.754 72.6998
133.760 75.9968
133.766 79.3954
133.772 83.0117
133.778 86.7334
133.785 90.6868
133.791 94.7483
133.797 99.0550
133.803 103.545
133.809 108.223
133.815 113.011
133.828 123.235
133.840 134.237
133.850 144.054
133.861 154.323
133.871 165.243
133.881 176.595
133.892 189.186
133.903 202.347
133.913 216.051
133.924 230.267
133.935 244.956
133.946 260.070
133.957 275.557
133.967 291.208
133.990 324.967
134.012 358.936
134.035 392.609
134.058 424.955
134.073 445.766
134.088 465.244
134.100 478.524
134.111 490.828
134.122 502.055
134.134 512.112
134.146 521.560
134.158 529.454
134.175 537.521
134.191 542.461
134.200 543.804
134.209 544.184
134.219 543.503
134.229 541.712
134.238 538.788
134.248 534.813
134.266 524.822
134.284 511.544
134.301 495.279
134.319 476.384
134.337 455.256
134.355 432.452
134.372 409.268
134.389 385.359
134.423 336.271
134.440 310.620
134.458 285.642
134.476 261.344
134.494 238.237
134.505 224.002
134.516 210.438
134.528 197.450
134.539 185.060
134.550 173.283
134.561 162.130
134.573 151.603
134.584 141.699
134.593 134.331
134.602 127.340
134.611 120.718
134.620 114.456
134.629 108.544
134.637 102.973
134.646 97.7288
134.655 92.8548
134.664 88.2271
134.673 83.8899
134.682 79.8298
134.691 76.0747
134.700 72.5260
134.708 69.2143
134.717 66.1267
134.726 63.2812
134.735 60.6008
134.744 58.1066
134.753 55.7868
134.762 53.6534
134.771 51.6470
134.779 49.7823
134.788 48.0493
134.797 46.4560
134.806 44.9574
134.815 43.5639
134.824 42.2675
134.833 41.0739
134.842 39.9491
134.850 38.9008
134.859 37.9228
134.868 37.0196
134.877 36.1655
134.886 35.3663
134.895 34.6176
134.904 33.9154
134.913 33.2560
134.922 32.6358
134.930 32.0519
134.939 31.5072
134.948 30.9868
134.957 30.4947
134.975 29.5867
134.993 28.7677
135.010 28.0290
135.028 27.3515
135.046 26.7308
135.064 26.1596
135.081 25.6344
135.099 25.1442
135.117 24.6903
135.135 24.2638
135.152 23.8663
135.170 23.4909
135.188 23.1373
135.206 22.8037
135.224 22.4901
135.241 22.1912
135.259 21.9092
135.295 21.3846
135.330 20.9068
135.366 20.4720
135.401 20.0734
135.437 19.7065
135.469 19.3971
135.501 19.1085
135.534 18.8386
135.566 18.5857
135.598 18.3481
135.630 18.1245
135.663 17.9137
135.695 17.7152
135.727 17.5270
135.760 17.3488
135.792 17.1800
135.824 17.0197
135.856 16.8677
135.889 16.7232
135.921 16.5860
135.953 16.4560
136.005 16.2607
136.057 16.0812
136.115 15.8970
136.173 15.7317
136.231 15.5849
136.260 15.5186
136.289 15.4574
136.318 15.4012
136.347 15.3504
136.376 15.3055
136.405 15.2669
136.435 15.2349
136.464 15.2104
136.493 15.1941
136.522 15.1870
136.557 15.1928
136.593 15.2171
136.611 15.2374
136.628 15.2641
136.646 15.2978
136.664 15.3391
136.682 15.3896
136.699 15.4503
136.717 15.5228
136.735 15.6083
136.753 15.7103
136.770 15.8301
136.788 15.9727
136.806 16.1406
136.819 16.2833
136.832 16.4439
136.845 16.6261
136.858 16.8330
136.871 17.0702
136.884 17.3383
136.896 17.6438
136.909 17.9922
136.922 18.3931
136.935 18.8476
136.948 19.3667
136.961 19.9596
136.968 20.2895
136.974 20.6366
136.980 21.0131
136.987 21.4091
136.993 21.8386
137.000 22.2900
137.006 22.7794
137.013 23.2935
137.022 24.0652
137.030 24.9081
137.039 25.8280
137.048 26.8309
137.057 27.9233
137.066 29.1120
137.075 30.4040
137.084 31.7902
137.093 33.3095
137.102 34.9546
137.110 36.7335
137.119 38.6317
137.128 40.7007
137.137 42.9278
137.146 45.3212
137.155 47.8592
137.162 50.2260
137.170 52.7342
137.178 55.3888
137.185 58.1570
137.193 61.1160
137.201 64.2344
137.209 67.5159
137.216 70.9180
137.224 74.5331
137.232 78.3199
137.239 82.2801
137.247 86.3602
137.262 95.1510
137.278 104.574
137.286 110.365
137.295 116.377
137.304 122.604
137.313 128.963
137.331 142.319
137.348 156.341
137.366 170.979
137.384 185.994
137.402 201.194
137.420 216.282
137.442 235.145
137.465 253.090
137.483 266.240
137.500 278.190
137.520 289.725
137.537 298.598
137.555 305.710
137.566 309.260
137.578 311.983
137.589 313.904
137.600 314.974
137.611 315.206
137.628 313.964
137.645 310.874
137.659 306.902
137.673 301.772
137.687 295.534
137.701 288.329
137.719 277.783
137.737 265.959
137.751 255.916
137.765 245.348
137.793 223.195
137.821 200.270
137.848 177.582
137.871 159.583
137.883 150.869
137.894 142.490
137.906 134.328
137.917 126.546
137.929 119.092
137.940 111.979
137.954 103.723
137.968 96.0048
137.982 88.8271
137.989 85.4394
137.996 82.2298
138.003 79.1037
138.010 76.1067
138.017 73.2365
138.024 70.5291
138.031 67.9033
138.038 65.3962
138.045 63.0049
138.052 60.7577
138.061 58.0154
138.069 55.4424
138.078 53.0312
138.087 50.7745
138.096 48.6648
138.105 46.6945
138.114 44.8562
138.123 43.1424
138.132 41.5460
138.141 40.0600
138.150 38.6774
138.158 37.3917
138.167 36.1965
138.176 35.0857
138.185 34.0534
138.194 33.1046
138.201 32.3975
138.208 31.7299
138.215 31.0996
138.222 30.5042
138.229 29.9417
138.236 29.4101
138.243 28.9075
138.250 28.4320
138.257 27.9821
138.264 27.5561
138.271 27.1525
138.278 26.7699
138.292 26.0622
138.306 25.4278
138.320 24.8489
138.334 24.3230
138.348 23.8433
138.362 23.4074
138.376 23.0039
138.390 22.6319
138.404 22.2878
138.418 21.9704
138.435 21.5952
138.453 21.2506
138.471 20.9326
138.489 20.6378
138.507 20.3636
138.524 20.1074
138.542 19.8673
138.560 19.6430
138.578 19.4303
138.596 19.2295
138.613 19.0393
138.631 18.8599
138.667 18.5252
138.702 18.2217
138.730 18.0009
138.758 17.7943
138.786 17.6007
138.814 17.4192
138.842 17.2476
138.870 17.0860
138.898 16.9325
138.926 16.7873
138.954 16.6489
138.982 16.5175
139.038 16.2721
139.094 16.0474
139.149 15.8406
139.198 15.6745
139.246 15.5185
139.294 15.3717
139.343 15.2332
139.391 15.1018
139.439 14.9769
139.487 14.8580
139.536 14.7446
139.584 14.6360
139.632 14.5318
139.729 14.3356
139.825 14.1531
139.922 13.9826
140.003 13.8469
140.084 13.7176
140.196 13.5489
140.308 13.3899
140.420 13.2395
140.476 13.1673
140.532 13.0970
140.588 13.0286
140.644 12.9620
140.699 12.8974
140.755 12.8348
140.811 12.7742
140.867 12.7158
140.923 12.6597
140.979 12.6062
141.045 12.5465
141.111 12.4913
141.177 12.4415
141.243 12.3980
141.309 12.3620
141.342 12.3473
141.375 12.3353
141.408 12.3261
141.441 12.3201
141.474 12.3177
141.507 12.3194
141.561 12.3321
141.588 12.3439
141.614 12.3597
141.641 12.3802
141.668 12.4058
141.694 12.4372
141.721 12.4750
141.748 12.5204
141.774 12.5743
141.801 12.6378
141.828 12.7121
141.854 12.7996
141.881 12.9021
141.908 13.0224
141.934 13.1631
141.962 13.3384
141.976 13.4384
141.990 13.5470
142.004 13.6670
142.018 13.7989
142.032 13.9442
142.046 14.1034
142.060 14.2808
142.074 14.4778
142.088 14.6970
142.102 14.9398
142.116 15.2135
142.130 15.5207
142.144 15.8665
142.158 16.2538
142.171 16.6748
142.185 17.1457
142.198 17.6815
142.211 18.2827
142.225 18.9685
142.238 19.7399
142.251 20.6212
142.258 21.1054
142.265 21.6133
142.271 22.1623
142.278 22.7470
142.285 23.3699
142.291 24.0229
142.298 24.7285
142.305 25.4795
142.312 26.2788
142.318 27.1160
142.325 28.0196
142.332 28.9801
142.338 30.0009
142.345 31.0686
142.352 32.2188
142.358 33.4207
142.365 34.7141
142.371 36.0641
142.378 37.5823
142.385 39.1937
142.392 40.9028
142.399 42.7140
142.406 44.6321
142.413 46.6617
142.420 48.8074
142.427 51.0406
142.434 53.4307
142.441 55.9507
142.448 58.6052
142.455 61.3987
142.462 64.3353
142.469 67.4193
142.476 70.6547
142.483 73.9957
142.491 77.9062
142.499 81.9583
142.506 86.2052
142.514 90.6502
142.521 94.9218
142.528 99.3653
142.542 108.772
142.556 118.874
142.570 129.585
142.584 141.043
142.598 153.147
142.612 165.857
142.626 179.025
142.641 194.076
142.656 209.510
142.671 225.306
142.686 241.332
142.714 270.949
142.742 299.802
142.760 317.236
142.778 333.523
142.792 345.475
142.806 356.458
142.820 366.344
142.834 374.957
142.849 383.072
142.865 389.430
142.883 394.352
142.900 396.852
142.906 397.151
142.917 396.934
142.927 395.848
142.938 393.903
142.948 391.147
142.961 386.521
142.974 380.669
142.990 371.882
143.006 361.490
143.019 352.287
143.031 342.286
143.056 320.370
143.081 296.470
143.106 271.391
143.143 234.282
143.161 216.065
143.180 198.466
143.192 186.683
143.205 175.285
143.217 164.315
143.230 153.887
143.242 143.862
143.255 134.418
143.268 125.414
143.280 117.001
143.294 108.373
143.307 100.359
143.314 96.5511
143.321 92.9455
143.328 89.4336
143.335 86.1144
143.342 82.8875
143.349 79.8431
143.355 76.8883
143.362 74.1053
143.369 71.4086
143.376 68.8725
143.383 66.4187
143.390 64.1143
143.396 62.0768
143.402 60.1300
143.409 58.2706
143.415 56.4956
143.421 54.8018
143.427 53.1863
143.434 51.6460
143.440 50.2006
143.446 48.8006
143.453 47.4671
143.459 46.1971
143.465 45.0066
143.471 43.8545
143.478 42.7580
143.484 41.7144
143.490 40.7366
143.496 39.7908
143.503 38.8907
143.515 37.2190
143.528 35.7045
143.540 34.3419
143.553 33.0952
143.566 31.9712
143.578 30.9401
143.591 30.0077
143.603 29.1492
143.616 28.3637
143.628 27.6435
143.641 26.9864
143.654 26.3759
143.666 25.8162
143.679 25.2933
143.691 24.8114
143.704 24.3589
143.716 23.9397
143.729 23.5440
143.741 23.1756
143.754 22.8262
143.766 22.4993
143.792 21.8956
143.817 21.3501
143.842 20.8578
143.867 20.4088
143.892 19.9971
143.917 19.6164
143.942 19.2656
143.967 18.9398
143.993 18.6362
144.018 18.3515
144.043 18.0857
144.068 17.8361
144.093 17.6011
144.118 17.3793
144.143 17.1697
144.193 16.7828
144.225 16.5562
144.257 16.3434
144.289 16.1431
144.321 15.9548
144.385 15.6072
144.449 15.2951
144.513 15.0124
144.577 14.7558
144.641 14.5216
144.705 14.3072
144.755 14.1509
144.805 14.0051
144.856 13.8685
144.906 13.7410
144.956 13.6218
145.006 13.5109
145.057 13.4077
145.107 13.3125
145.157 13.2247
145.207 13.1448
145.258 13.0725
145.308 13.0084
145.358 12.9525
145.408 12.9054
145.459 12.8675
145.509 12.8394
145.577 12.8184
145.646 12.8196
145.714 12.8462
145.783 12.9022
145.852 12.9926
145.886 13.0527
145.920 13.1237
145.954 13.2070
145.989 13.3034
146.023 13.4147
146.057 13.5419
146.107 13.7619
146.158 14.0263
146.208 14.3433
146.258 14.7222
146.283 14.9394
146.308 15.1758
146.333 15.4341
146.358 15.7165
146.384 16.0254
146.409 16.3635
146.434 16.7338
146.459 17.1398
146.495 17.8040
146.532 18.5649
146.569 19.4444
146.587 19.9346
146.605 20.4598
146.637 21.4854
146.669 22.6622
146.685 23.3164
146.701 24.0201
146.717 24.7785
146.733 25.5920
146.749 26.4773
146.765 27.4373
146.781 28.4805
146.797 29.6170
146.813 30.8585
146.829 32.2185
146.845 33.7127
146.861 35.3487
146.873 36.7658
146.886 38.3026
146.899 39.9723
146.911 41.7752
146.924 43.7569
146.936 45.9048
146.949 48.2747
146.961 50.8525
146.974 53.7063
146.986 56.8203
146.993 58.5068
146.999 60.2775
147.005 62.1373
147.012 64.0594
147.018 66.1110
147.024 68.2673
147.030 70.5342
147.037 72.8788
147.043 75.3832
147.049 78.0170
147.056 80.7871
147.062 83.6535
147.069 87.0158
147.076 90.5695
147.082 94.3255
147.089 98.2359
147.096 102.427
147.103 106.790
147.110 111.464
147.117 116.327
147.124 121.536
147.130 126.952
147.137 132.750
147.144 138.774
147.151 145.218
147.158 151.909
147.165 159.059
147.171 166.477
147.178 173.691
147.184 181.247
147.190 189.158
147.197 197.434
147.203 206.090
147.209 215.137
147.216 224.589
147.222 234.296
147.228 244.584
147.234 255.313
147.241 266.493
147.247 277.947
147.259 302.648
147.272 329.105
147.285 357.811
147.297 388.370
147.310 421.319
147.322 456.164
147.335 493.475
147.347 532.652
147.360 574.292
147.372 617.677
147.382 653.087
147.392 689.290
147.411 764.896
147.431 844.253
147.450 926.592
147.475 1036.01
147.500 1146.45
147.525 1255.57
147.551 1359.49
147.576 1455.52
147.588 1499.78
147.601 1540.58
147.613 1577.95
147.626 1611.31
147.638 1640.90
147.651 1666.00
147.663 1686.64
147.675 1702.65
147.688 1713.88
147.700 1720.22
147.705 1721.33
147.719 1720.46
147.734 1712.79
147.748 1698.46
147.763 1677.69
147.774 1657.77
147.785 1634.66
147.807 1579.12
147.829 1514.48
147.850 1441.08
147.877 1337.62
147.904 1227.23
147.947 1047.80
147.969 958.989
147.990 872.672
148.012 789.602
148.033 711.452
148.044 674.287
148.054 638.482
148.065 604.081
148.076 571.120
148.092 522.880
148.101 500.088
148.109 478.438
148.117 457.397
148.125 437.463
148.134 418.139
148.142 399.878
148.150 382.217
148.158 365.366
148.167 349.306
148.175 334.194
148.183 319.640
148.191 305.972
148.200 292.831
148.208 280.510
148.219 265.245
148.229 251.147
148.240 238.015
148.251 225.795
148.262 214.431
148.272 203.870
148.283 194.061
148.294 184.953
148.304 176.498
148.315 168.651
148.326 161.366
148.336 154.604
148.347 148.323
148.358 142.488
148.369 137.064
148.379 132.018
148.390 127.321
148.401 122.943
148.411 118.860
148.422 115.048
148.433 111.484
148.443 108.148
148.454 105.022
148.465 102.088
148.476 99.3310
148.486 96.7364
148.497 94.2913
148.508 91.9839
148.518 89.8031
148.529 87.7394
148.550 83.9274
148.572 80.4853
148.593 77.3613
148.615 74.5124
148.636 71.9027
148.657 69.5024
148.679 67.2864
148.700 65.2336
148.722 63.3261
148.743 61.5485
148.764 59.8877
148.786 58.3324
148.807 56.8727
148.829 55.4999
148.850 54.2065
148.871 52.9859
148.893 51.8319
148.914 50.7395
148.936 49.7037
148.957 48.7204
148.978 47.7857
149.021 46.0486
149.064 44.4683
149.107 43.0249
149.150 41.7015
149.192 40.4840
149.235 39.3604
149.268 38.5493
149.301 37.7840
149.335 37.0608
149.368 36.3783
149.401 35.7295
149.434 35.1136
149.467 34.5284
149.500 33.9732
149.533 33.4426
149.566 32.9365
149.632 31.9929
149.698 31.1278
149.764 30.3341
149.807 29.8526
149.850 29.3962
149.893 28.9621
149.936 28.5487
149.979 28.1546
150.021 27.7784
150.064 27.4190
150.107 27.0754
150.150 26.7460
150.193 26.4313
150.235 26.1299
150.278 25.8411
150.321 25.5644
150.364 25.2993
150.407 25.0456
150.449 24.8028
150.512 24.4696
150.562 24.2157
150.613 23.9780
150.663 23.7574
150.689 23.6541
150.714 23.5560
150.739 23.4634
150.765 23.3769
150.790 23.2973
150.815 23.2254
150.841 23.1626
150.866 23.1103
150.891 23.0708
150.916 23.0470
150.933 23.0417
150.950 23.0460
150.966 23.0618
150.983 23.0908
150.999 23.1358
151.016 23.1992
151.032 23.2848
151.049 23.3967
151.065 23.5409
151.074 23.6268
151.082 23.7218
151.090 23.8291
151.098 23.9486
151.107 24.0814
151.115 24.2269
151.123 24.3898
151.132 24.5699
151.140 24.7685
151.148 24.9846
151.156 25.2250
151.165 25.4858
151.173 25.7752
151.181 26.0881
151.192 26.5404
151.202 27.0471
151.213 27.6134
151.224 28.2451
151.235 28.9479
151.245 29.7284
151.256 30.5930
151.267 31.5487
151.277 32.6027
151.288 33.7624
151.299 35.0353
151.309 36.4292
151.320 37.9517
151.331 39.6106
151.342 41.4135
151.352 43.3678
151.359 44.7116
151.366 46.1023
151.373 47.5605
151.380 49.0877
151.393 52.3551
151.407 55.9148
151.420 59.8043
151.434 63.9722
151.448 68.4479
151.461 73.2300
151.472 77.2043
151.483 81.3604
151.493 85.6921
151.504 90.1912
151.525 99.6500
151.547 109.633
151.564 118.094
151.582 126.729
151.599 135.436
151.617 144.105
151.638 154.481
151.660 164.392
151.679 172.822
151.699 180.462
151.713 185.623
151.728 190.208
151.738 193.168
151.749 195.768
151.766 199.148
151.776 200.653
151.787 201.793
151.800 202.734
151.819 202.917
151.833 202.164
151.848 200.661
151.860 198.763
151.873 196.358
151.885 193.456
151.898 190.088
151.920 182.859
151.943 174.418
151.968 164.019
151.992 152.856
152.022 139.059
152.051 125.211
152.076 113.720
152.088 108.175
152.101 102.781
152.113 97.5188
152.126 92.4899
152.138 87.6661
152.151 83.0589
152.163 78.6423
152.175 74.4923
152.188 70.5448
152.200 66.8634
152.213 63.3868
152.225 60.1668
152.238 57.1693
152.250 54.3873
152.262 51.9128
152.274 49.6215
152.286 47.5051
152.298 45.5703
152.309 43.7752
152.321 42.1408
152.327 41.3626
152.333 40.6304
152.345 39.2601
152.351 38.6093
152.357 37.9980
152.363 37.4142
152.369 36.8568
152.375 36.3160
152.381 35.8088
152.392 34.8641
152.404 33.9991
152.416 33.2218
152.428 32.5125
152.440 31.8776
152.452 31.2734
152.465 30.7382
152.477 30.2624
152.489 29.8417
152.502 29.4698
152.514 29.1498
152.527 28.8761
152.539 28.6469
152.552 28.4593
152.564 28.3157
152.576 28.2138
152.589 28.1535
152.601 28.1352
152.614 28.1598
152.626 28.2279
152.639 28.3405
152.650 28.4831
152.661 28.6650
152.672 28.8874
152.684 29.1515
152.695 29.4586
152.706 29.8100
152.718 30.2069
152.729 30.6506
152.740 31.1420
152.752 31.6821
152.763 32.2718
152.774 32.9116
152.785 33.6020
152.797 34.3431
152.808 35.1348
152.819 35.9692
152.831 36.8606
152.842 37.8007
152.853 38.7883
152.864 39.8218
152.887 42.0190
152.910 44.3735
152.932 46.8618
152.955 49.4565
153.000 54.8266
153.000 86.0802
200.000 73.0207
300.000 60.6996
400.000 53.3481
500.000 48.3677
600.000 45.4737
750.000 42.0353
800.000 40.8891
1000.00 37.8539
1500.00 32.8341
2000.00 29.7371
2500.00 27.8770
3000.00 26.0168
3000.00 26.0168
3669.28 24.4779
4000.00 23.7175
5000.00 22.1959
6000.00 21.1100
8000.00 19.3729
10000.0 18.2203
12000.0 17.3940
15000.0 16.3980
18000.0 15.6551
19713.6 15.2307
20000.0 15.1598
21000.0 15.0009
25000.0 14.3653
30000.0 13.7178
35000.0 13.2596
40000.0 12.8014
40362.0 12.7732
45000.0 12.4124
50000.0 12.0234
51671.5 11.9513
55000.0 11.8076
65000.0 11.3760
70000.0 11.2602
80000.0 10.9354
82855.3 10.8592
82855.4 10.8592
90000.0 10.6685
100000 10.3149
106731 10.1167
120000 9.72595
130104 9.49914
130104 9.49914
144720 9.17103
150000 9.05250
151999 9.01980
163580 8.83038
170516 8.71694
172145 8.69030
172145 8.69029
179885 8.56369
179885 8.56369
180000 8.56181
200000 8.23468
200654 8.22829
210000 8.13696
210818 8.12897
221986 8.01983
226289 7.97779
250000 7.74608
254769 7.70736
281821 7.48772
295935 7.37313
298227 7.35452
300000 7.34013
328385 7.14325
338338 7.07422
345174 7.02681
345174 7.02681
346500 7.01762
346500 7.01762
349265 6.99844
350000 6.99334
352995 6.97582
352995 6.97582
354060 6.96959
392834 6.74275
392834 6.74275
400000 6.70082
450000 6.47521
500000 6.24960
505496 6.23455
505496 6.23455
507084 6.23020
507085 6.23019
541706 6.13536
541706 6.13536
550000 6.11264
559701 6.09009
559701 6.09009
591166 6.01694
591166 6.01694
594574 6.00902
594574 6.00902
600000 5.99641
617243 5.98291
617243 5.98291
627387 5.97496
627387 5.97496
650000 5.95726
657424 5.95503
657424 5.95503
662722 5.95345
662722 5.95345
690026 5.94527
690026 5.94528
700000 5.94229
750000 5.92731
751760 5.92678
751760 5.92678
800000 5.91234
850000 5.91669
900000 5.92103
950000 5.93419
1.00000E+06 5.94735
1.10000E+06 5.99855
1.20000E+06 6.02883
1.30000E+06 6.10863
1.40000E+06 6.18844
1.50000E+06 6.26824
1.60000E+06 6.36724
1.70000E+06 6.46624
1.80000E+06 6.53941
1.90000E+06 6.61259
2.00000E+06 6.68576
2.00000E+06 6.68576
2.00000E+06 6.68577
2.20000E+06 6.83212
2.50000E+06 6.94461
3.00000E+06 7.03472
3.20000E+06 7.04634
3.50000E+06 6.98538
3.70000E+06 6.89609
4.00000E+06 6.79704
4.50000E+06 6.59622
5.00000E+06 6.33410
5.30286E+06 6.18736
5.31794E+06 6.18005
5.50000E+06 6.09184
6.00000E+06 5.84957
6.50000E+06 5.60729
7.00000E+06 5.39135
7.50000E+06 5.23862
8.00000E+06 5.12457
8.11464E+06 5.09842
8.11464E+06 5.09842
8.14078E+06 5.09245
8.15098E+06 5.09013
8.20000E+06 5.07894
8.30000E+06 5.05613
8.40000E+06 5.03332
8.49303E+06 5.01210
8.50000E+06 5.01051
8.60000E+06 5.00406
8.70000E+06 4.99762
8.80000E+06 4.99117
8.90000E+06 4.98472
9.00000E+06 4.97828
9.50000E+06 4.96796
1.00000E+07 4.97559
1.05000E+07 4.99814
1.10000E+07 5.00635
1.15000E+07 5.04342
1.20000E+07 5.08230
1.25000E+07 5.11704
1.30000E+07 5.17272
1.31501E+07 5.18860
1.35000E+07 5.22561
1.40000E+07 5.27515
1.44720E+07 5.32011
1.44721E+07 5.32011
1.45000E+07 5.32278
1.50000E+07 5.37112
1.55000E+07 5.42393
1.60000E+07 5.46604
1.65000E+07 5.49351
1.70000E+07 5.51998
1.75000E+07 5.54735
1.80000E+07 5.56047
1.85000E+07 5.57487
1.90000E+07 5.57585
1.95000E+07 5.57700
2.00000E+07 5.57814
