Hg-199(n,tot) ENDFB-8.0
Energy(eV) XS(b)
1.00000E-05 111004
1.03125E-05 109310
1.06250E-05 107690
1.09375E-05 106141
1.12500E-05 104656
1.15625E-05 103233
1.18750E-05 101865
1.21875E-05 100551
1.25000E-05 99286.4
1.28125E-05 98068.3
1.31250E-05 96893.9
1.34375E-05 95760.8
1.37500E-05 94666.5
1.43750E-05 92585.9
1.50000E-05 90636.8
1.56250E-05 88805.9
1.62500E-05 87081.6
1.68750E-05 85454.1
1.75000E-05 83914.5
1.81250E-05 82455.3
1.87500E-05 81069.6
1.93750E-05 79751.6
2.00000E-05 78495.8
2.09375E-05 76718.7
2.18750E-05 75057.1
2.28125E-05 73499.0
2.37500E-05 72034.1
2.46875E-05 70653.5
2.56250E-05 69349.3
2.65625E-05 68114.8
2.75000E-05 66944.1
2.84375E-05 65831.6
2.93750E-05 64772.9
3.03125E-05 63763.7
3.12500E-05 62800.3
3.21875E-05 61879.3
3.31250E-05 60997.6
3.40625E-05 60152.6
3.50000E-05 59341.8
3.59375E-05 58562.9
3.68750E-05 57814.0
3.78125E-05 57093.1
3.87500E-05 56398.4
3.96875E-05 55728.6
4.06250E-05 55082.1
4.25000E-05 53853.8
4.43750E-05 52704.3
4.62500E-05 51625.4
4.81250E-05 50610.2
5.00000E-05 49652.6
5.15625E-05 48894.9
5.31250E-05 48170.9
5.46875E-05 47478.1
5.62500E-05 46814.4
5.78125E-05 46177.8
5.93750E-05 45566.4
6.09375E-05 44978.8
6.25000E-05 44413.3
6.40625E-05 43868.7
6.56250E-05 43343.6
6.71875E-05 42837.0
6.87500E-05 42347.7
7.18750E-05 41417.5
7.50000E-05 40546.1
7.81250E-05 39727.4
8.12500E-05 38956.5
8.43750E-05 38228.9
8.75000E-05 37540.5
9.06250E-05 36888.1
9.37500E-05 36268.6
9.68750E-05 35679.4
0.000100000 35118.0
0.000103125 34582.3
0.000106250 34070.4
0.000109375 33580.6
0.000112500 33111.4
0.000115625 32661.3
0.000118750 32229.1
0.000121875 31813.7
0.000125000 31413.9
0.000128125 31028.9
0.000131250 30657.7
0.000134375 30299.5
0.000137500 29953.6
0.000143750 29296.0
0.000150000 28679.9
0.000156250 28101.2
0.000162500 27556.2
0.000168750 27041.8
0.000175000 26555.2
0.000181250 26094.0
0.000187500 25656.0
0.000193750 25239.5
0.000200000 24842.6
0.000209375 24280.9
0.000218750 23755.8
0.000228125 23263.3
0.000237500 22800.4
0.000246875 22364.0
0.000256250 21951.9
0.000265625 21561.7
0.000275000 21191.7
0.000284375 20840.2
0.000293750 20505.6
0.000303125 20186.7
0.000312500 19882.2
0.000321875 19591.1
0.000331250 19312.5
0.000340625 19045.5
0.000350000 18789.2
0.000359375 18543.1
0.000368750 18306.4
0.000378125 18078.6
0.000387500 17859.1
0.000396875 17647.4
0.000406250 17443.1
0.000425000 17054.9
0.000443750 16691.7
0.000462500 16350.7
0.000481250 16029.9
0.000500000 15727.3
0.000515625 15487.8
0.000531250 15259.0
0.000546875 15040.1
0.000562500 14830.3
0.000578125 14629.1
0.000593750 14436.0
0.000609375 14250.2
0.000625000 14071.5
0.000640625 13899.4
0.000656250 13733.5
0.000671875 13573.3
0.000687500 13418.7
0.000718750 13124.7
0.000750000 12849.3
0.000781250 12590.6
0.000812500 12346.9
0.000843750 12116.9
0.000875000 11899.3
0.000906250 11693.1
0.000937500 11497.3
0.000968750 11311.0
0.00100000 11133.5
0.00103125 10964.2
0.00106250 10802.4
0.00109375 10647.5
0.00112500 10499.2
0.00115625 10356.9
0.00118750 10220.3
0.00121875 10088.9
0.00125000 9962.51
0.00128125 9840.77
0.00131250 9723.39
0.00134375 9610.13
0.00137500 9500.76
0.00143750 9292.79
0.00150000 9097.96
0.00156250 8914.92
0.00162500 8742.54
0.00168750 8579.82
0.00175000 8425.89
0.00181250 8279.98
0.00187500 8141.43
0.00193750 8009.62
0.00200000 7884.03
0.00209375 7706.30
0.00218750 7540.09
0.00228125 7384.23
0.00237500 7237.68
0.00246875 7099.55
0.00256250 6969.06
0.00265625 6845.53
0.00275000 6728.36
0.00284375 6617.02
0.00293750 6511.05
0.00303125 6410.03
0.00312500 6313.58
0.00321875 6221.37
0.00331250 6133.10
0.00340625 6048.49
0.00350000 5967.30
0.00359375 5889.29
0.00368750 5814.28
0.00378125 5742.07
0.00387500 5672.49
0.00396875 5605.38
0.00406250 5540.60
0.00425000 5417.53
0.00443750 5302.32
0.00462500 5194.16
0.00481250 5092.38
0.00500000 4996.36
0.00515625 4920.36
0.00531250 4847.73
0.00546875 4778.23
0.00562500 4711.63
0.00578125 4647.75
0.00593750 4586.40
0.00609375 4527.41
0.00625000 4470.64
0.00640625 4415.96
0.00656250 4363.23
0.00671875 4312.35
0.00687500 4263.20
0.00718750 4169.74
0.00750000 4082.16
0.00781250 3999.86
0.00812500 3922.32
0.00843750 3849.11
0.00875000 3779.84
0.00906250 3714.16
0.00937500 3651.77
0.00968750 3592.41
0.0100000 3535.84
0.0103125 3481.85
0.0106250 3430.24
0.0109375 3380.85
0.0112500 3333.51
0.0115625 3288.10
0.0118750 3244.49
0.0121875 3202.55
0.0125000 3162.19
0.0128125 3123.30
0.0131250 3085.80
0.0134375 3049.61
0.0137500 3014.64
0.0143750 2948.14
0.0150000 2885.79
0.0156250 2827.19
0.0162500 2771.96
0.0168750 2719.80
0.0175000 2670.43
0.0181250 2623.60
0.0187500 2579.11
0.0193750 2536.77
0.0200000 2496.41
0.0206625 2455.61
0.0213250 2416.72
0.0219875 2379.57
0.0226500 2344.04
0.0233125 2310.02
0.0239750 2277.40
0.0246375 2246.09
0.0253000 2215.99
0.0263613 2170.14
0.0274227 2126.93
0.0284840 2086.12
0.0295453 2047.50
0.0306067 2010.88
0.0316680 1976.08
0.0327293 1942.97
0.0337906 1911.41
0.0345625 1889.35
0.0355274 1862.78
0.0364922 1837.25
0.0374570 1812.68
0.0384219 1789.02
0.0393867 1766.22
0.0403516 1744.22
0.0413164 1722.98
0.0422813 1702.45
0.0442109 1663.37
0.0461406 1626.72
0.0480703 1592.25
0.0500000 1559.74
0.0515625 1534.73
0.0531250 1510.80
0.0546875 1487.88
0.0562500 1465.89
0.0578125 1444.78
0.0593750 1424.48
0.0609375 1404.94
0.0625000 1386.12
0.0640625 1367.97
0.0656250 1350.46
0.0671875 1333.54
0.0687500 1317.19
0.0703125 1301.37
0.0718750 1286.06
0.0750000 1256.82
0.0781250 1229.28
0.0812500 1203.28
0.0843750 1178.68
0.0875000 1155.36
0.0906250 1133.21
0.0937500 1112.13
0.0968750 1092.04
0.100000 1072.86
0.103125 1054.52
0.106250 1036.96
0.109375 1020.13
0.112500 1003.97
0.115625 988.442
0.118750 973.505
0.121875 959.119
0.125000 945.251
0.128125 931.869
0.131250 918.946
0.134375 906.455
0.137500 894.372
0.140625 882.676
0.143750 871.349
0.146875 860.372
0.150000 849.726
0.156250 829.346
0.162500 810.077
0.168750 791.826
0.175000 774.511
0.181250 758.052
0.187500 742.380
0.193750 727.430
0.200000 713.146
0.208203 695.333
0.216406 678.497
0.224609 662.547
0.232813 647.415
0.241016 633.031
0.249219 619.318
0.257422 606.221
0.265625 593.702
0.275000 580.052
0.284375 567.050
0.293750 554.646
0.303125 542.796
0.312500 531.459
0.321875 520.599
0.331250 510.183
0.340625 500.183
0.350000 490.571
0.359375 481.324
0.368750 472.419
0.378125 463.835
0.387500 455.554
0.396875 447.559
0.406250 439.835
0.415625 432.366
0.425000 425.139
0.434375 418.141
0.443750 411.362
0.453125 404.790
0.462500 398.417
0.471875 392.237
0.481250 386.244
0.500000 374.790
0.531250 357.003
0.562500 340.679
0.593750 325.672
0.625000 311.825
0.656250 299.005
0.687500 287.097
0.718750 276.008
0.750000 265.653
0.781250 255.962
0.812500 246.873
0.843750 238.332
0.875000 230.291
0.906250 222.707
0.937500 215.544
0.968750 208.768
1.00000 202.379
1.06250 190.535
1.12500 179.798
1.18750 170.051
1.25000 161.168
1.31250 153.045
1.37500 145.593
1.43750 138.736
1.50000 132.409
1.56250 126.558
1.62500 121.134
1.68750 116.094
1.75000 111.402
1.81250 107.026
1.87500 102.937
1.93750 99.1102
2.00000 95.5301
2.09375 90.5611
2.18750 86.0189
2.28125 81.8616
2.37500 78.0462
2.46875 74.5354
2.56250 71.2973
2.65625 68.3039
2.75000 65.5307
2.84375 62.9565
2.93750 60.5623
3.03125 58.3316
3.12500 56.2496
3.21875 54.3033
3.31250 52.4810
3.40625 50.7722
3.50000 49.1676
3.59375 47.6589
3.68750 46.2384
3.78125 44.8993
3.87500 43.6355
3.96875 42.4413
4.06250 41.3117
4.15625 40.2420
4.25000 39.2281
4.34375 38.2660
4.43750 37.3523
4.53125 36.4837
4.62500 35.6600
4.81250 34.1253
5.00000 32.7257
5.15625 31.6533
5.31250 30.6583
5.46875 29.7328
5.62500 28.8702
5.78125 28.0650
5.93750 27.3120
6.09375 26.6067
6.25000 25.9450
6.40625 25.3235
6.56250 24.7388
6.71875 24.1880
6.87500 23.6685
7.03125 23.1779
7.18750 22.7140
7.34375 22.2748
7.50000 21.8586
7.65625 21.4638
7.81250 21.0889
7.96875 20.7325
8.12500 20.3942
8.43750 19.7641
8.75000 19.1895
9.06250 18.6648
9.37500 18.1841
9.68750 17.7423
10.0000 17.3353
10.3125 16.9592
10.6250 16.6109
10.9375 16.2876
11.2500 15.9869
11.5625 15.7065
11.8750 15.4446
12.1875 15.1995
12.5000 14.9697
12.8125 14.7540
13.1250 14.5512
13.4375 14.3601
13.7500 14.1800
14.0625 14.0099
14.3750 13.8492
14.6875 13.6971
15.0000 13.5531
15.3125 13.4167
15.6250 13.2873
15.9375 13.1646
16.2500 13.0483
16.8750 12.8331
17.5000 12.6391
18.1250 12.4649
18.5938 12.3476
19.0625 12.2383
19.5313 12.1405
20.0000 12.0526
20.4686 11.9754
20.9372 11.9090
21.4058 11.8541
21.6401 11.8307
21.8744 11.8116
22.1087 11.7948
22.3430 11.7828
22.5773 11.7738
22.8116 11.7694
23.2802 11.7738
23.7488 11.7991
24.0352 11.8264
24.3215 11.8645
24.6079 11.9145
24.8943 11.9779
25.1806 12.0566
25.4670 12.1531
25.7534 12.2699
26.0397 12.4106
26.3131 12.5709
26.5864 12.7610
26.7231 12.8688
26.8598 12.9861
26.9964 13.1139
27.1331 13.2530
27.2698 13.4045
27.4065 13.5698
27.5431 13.7499
27.6798 13.9465
27.8165 14.1615
27.9532 14.3964
28.0898 14.6524
28.2265 14.9321
28.3697 15.2566
28.5129 15.6153
28.6561 16.0123
28.7992 16.4526
28.9424 16.9421
29.0856 17.4875
29.2288 18.0968
29.3720 18.7795
29.5152 19.5469
29.6583 20.4124
29.7299 20.8869
29.8015 21.3922
29.8731 21.9310
29.9447 22.5059
30.0163 23.1203
30.0879 23.7774
30.1595 24.4812
30.2311 25.2360
30.3027 26.0465
30.3743 26.9181
30.4458 27.8568
30.5174 28.8692
30.6020 30.1705
30.6867 31.5969
30.7713 33.1658
30.8559 34.8999
30.9405 36.8230
31.0251 38.9600
31.1097 41.3419
31.1943 44.0058
31.2464 45.8049
31.2984 47.7394
31.3700 50.6473
31.4416 53.8787
31.5132 57.4824
31.5848 61.5165
31.6206 63.7164
31.6564 66.0503
31.6922 68.5301
31.7280 71.1665
31.7638 73.9737
31.7996 76.9648
31.8354 80.1577
31.8712 83.5692
31.9070 87.2222
31.9428 91.1392
31.9786 95.3461
32.0143 99.8702
32.0501 104.746
32.0859 110.007
32.1217 115.697
32.1575 121.859
32.1933 128.550
32.2291 135.828
32.2649 143.765
32.2828 148.004
32.3007 152.437
32.3186 157.080
32.3365 161.944
32.3544 167.042
32.3723 172.386
32.3902 178.000
32.4081 183.897
32.4260 190.096
32.4439 196.615
32.4732 208.046
32.4878 214.144
32.5025 220.513
32.5171 227.176
32.5318 234.144
32.5464 241.439
32.5610 249.081
32.5757 257.100
32.5903 265.507
32.6050 274.340
32.6196 283.616
32.6343 293.378
32.6489 303.646
32.6635 314.462
32.6782 325.865
32.6961 340.670
32.7140 356.503
32.7319 373.461
32.7498 391.640
32.7677 411.180
32.7856 432.207
32.8035 454.871
32.8214 479.329
32.8393 505.802
32.8572 534.493
32.8751 565.653
32.8930 599.542
32.9109 636.522
32.9288 676.942
32.9377 698.572
32.9467 721.224
32.9556 744.962
32.9645 769.823
32.9735 795.935
32.9824 823.347
32.9914 852.142
33.0003 882.407
33.0093 914.237
33.0182 947.732
33.0272 983.001
33.0361 1020.16
33.0451 1059.33
33.0540 1100.64
33.0630 1144.23
33.0719 1190.26
33.0809 1238.87
33.0898 1290.24
33.0988 1344.53
33.1077 1401.86
33.1163 1459.78
33.1248 1520.81
33.1334 1585.19
33.1419 1653.12
33.1505 1724.85
33.1590 1800.42
33.1675 1880.08
33.1761 1964.03
33.1846 2052.55
33.1932 2145.59
33.2017 2243.43
33.2102 2346.21
33.2188 2454.04
33.2273 2567.01
33.2359 2685.20
33.2444 2808.64
33.2534 2943.61
33.2623 3084.25
33.2713 3230.42
33.2802 3381.90
33.2981 3699.55
33.3160 4033.58
33.3323 4348.78
33.3486 4668.55
33.3813 5297.69
33.3976 5592.80
33.4139 5864.18
33.4303 6104.08
33.4466 6305.06
33.4599 6435.97
33.4733 6533.40
33.4867 6595.12
33.5000 6619.72
33.5107 6612.31
33.5194 6588.62
33.5281 6549.42
33.5368 6495.03
33.5454 6426.15
33.5541 6343.33
33.5628 6247.59
33.5802 6020.91
33.5975 5754.28
33.6149 5457.08
33.6323 5138.78
33.6496 4808.75
33.6729 4361.76
33.6962 3925.43
33.7079 3715.17
33.7195 3512.13
33.7311 3317.06
33.7428 3130.60
33.7537 2963.18
33.7647 2804.17
33.7757 2653.35
33.7866 2510.97
33.7976 2376.61
33.8086 2250.33
33.8195 2131.72
33.8305 2020.46
33.8415 1916.13
33.8524 1818.53
33.8634 1727.13
33.8743 1641.70
33.8853 1561.73
33.8963 1486.99
33.9072 1417.06
33.9182 1351.61
33.9292 1290.26
33.9401 1232.84
33.9511 1179.01
33.9620 1128.49
33.9730 1081.02
33.9840 1036.46
33.9949 994.541
34.0059 955.085
34.0169 917.879
34.0278 882.827
34.0388 849.744
34.0497 818.492
34.0607 788.917
34.0717 760.957
34.0826 734.474
34.0936 709.371
34.1155 662.921
34.1374 620.998
34.1594 583.008
34.1813 548.511
34.2052 514.355
34.2291 483.401
34.2531 455.264
34.2770 429.613
34.3009 406.166
34.3248 384.676
34.3487 364.930
34.3727 346.745
34.3946 331.304
34.4165 316.930
34.4384 303.526
34.4604 291.010
34.4823 279.296
34.5042 268.326
34.5261 258.028
34.5481 248.359
34.5700 239.259
34.5919 230.688
34.6139 222.606
34.6358 214.980
34.6577 207.769
34.6796 200.950
34.7016 194.489
34.7235 188.366
34.7673 177.032
34.8112 166.791
34.8550 157.503
34.8989 149.053
34.9427 141.342
34.9866 134.285
35.0304 127.810
35.0743 121.853
35.1062 117.815
35.1381 114.006
35.1700 110.407
35.2019 107.003
35.2338 103.780
35.2656 100.726
35.3294 95.0740
35.3932 89.9622
35.4570 85.3234
35.5208 81.1001
35.5846 77.2456
35.6284 74.7865
35.6723 72.4701
35.7161 70.2847
35.7600 68.2206
35.8038 66.2683
35.8477 64.4206
35.8915 62.6696
35.9354 61.0086
36.0231 57.9318
36.1108 55.1476
36.1985 52.6186
36.2862 50.3146
36.3739 48.2086
36.4616 46.2785
36.5493 44.5043
36.6370 42.8697
36.7247 41.3598
36.8124 39.9625
36.9001 38.6672
36.9878 37.4649
37.0755 36.3448
37.1632 35.2978
37.2510 34.3178
37.3387 33.3999
37.4264 32.5389
37.5141 31.7303
37.6018 30.9696
37.6895 30.2531
37.7772 29.5772
37.8649 28.9389
37.9526 28.3352
38.0403 27.7637
38.1280 27.2220
38.2157 26.7080
38.3034 26.2197
38.3911 25.7554
38.5665 24.8926
38.7419 24.1080
38.9173 23.3921
39.0928 22.7368
39.2682 22.1351
39.4436 21.5810
39.6190 21.0694
39.7944 20.5958
39.9220 20.2730
40.0495 19.9669
40.1771 19.6763
40.3047 19.4002
40.4322 19.1377
40.5598 18.8885
40.8149 18.4235
41.0701 17.9978
41.3252 17.6082
41.5804 17.2502
41.8355 16.9204
42.0109 16.7083
42.1863 16.5072
42.3617 16.3161
42.5371 16.1345
42.7126 15.9616
42.8880 15.7967
43.2388 15.4894
43.5896 15.2084
43.9404 14.9507
44.2912 14.7135
44.6421 14.4943
44.9291 14.3270
45.2161 14.1695
45.5032 14.0209
45.7902 13.8805
46.0772 13.7476
46.3643 13.6216
46.6513 13.5020
46.9383 13.3886
47.3210 13.2459
47.7037 13.1114
48.0865 12.9842
48.4692 12.8644
48.8519 12.7515
49.2346 12.6444
49.6173 12.5425
50.0000 12.4456
50.3906 12.3515
50.7813 12.2620
51.1719 12.1765
51.5625 12.0948
51.9531 12.0165
52.3438 11.9417
53.1250 11.8005
53.9063 11.6695
54.6875 11.5475
55.4688 11.4334
56.2500 11.3263
57.0313 11.2254
57.8125 11.1298
58.5938 11.0392
59.3750 10.9529
60.1563 10.8705
60.9375 10.7916
61.7188 10.7158
62.5000 10.6429
63.2813 10.5726
64.0625 10.5046
64.8438 10.4388
65.6250 10.3749
67.1875 10.2522
68.7500 10.1353
70.3125 10.0233
71.8750 9.91522
73.4375 9.81050
75.0000 9.70848
76.5625 9.60863
78.1250 9.51049
79.6875 9.41363
81.2500 9.31768
82.8125 9.22229
84.3750 9.12712
85.9375 9.03188
87.5000 8.93627
89.0625 8.83999
90.6250 8.74275
92.1875 8.64428
93.7500 8.54427
95.3125 8.44241
96.8750 8.33838
98.4375 8.23185
100.000 8.12241
101.843 7.98912
103.111 7.89440
104.378 7.79699
105.645 7.69653
106.912 7.59263
108.180 7.48524
109.447 7.37373
110.080 7.31645
110.714 7.25789
111.348 7.19829
111.981 7.13758
112.730 7.06409
113.479 6.98886
114.228 6.91219
114.977 6.83364
115.725 6.75357
116.100 6.71303
116.474 6.67221
116.849 6.63117
117.223 6.58999
117.597 6.54875
117.972 6.50759
118.404 6.46036
118.836 6.41375
119.268 6.36814
119.700 6.32399
120.132 6.28192
120.348 6.26202
120.564 6.24302
120.780 6.22508
120.996 6.20839
121.212 6.19316
121.428 6.17963
121.745 6.16349
122.062 6.15277
122.378 6.14887
122.537 6.15002
122.695 6.15358
122.854 6.15986
123.012 6.16921
123.170 6.18201
123.329 6.19873
123.487 6.21988
123.646 6.24603
123.804 6.27777
123.962 6.31583
124.121 6.36127
124.279 6.41536
124.438 6.47930
124.596 6.55449
124.754 6.64266
124.913 6.74586
125.071 6.86656
125.230 7.00770
125.345 7.12528
125.460 7.25703
125.575 7.40490
125.690 7.57103
125.806 7.75790
125.921 7.96841
126.036 8.20596
126.151 8.47454
126.266 8.77886
126.382 9.12447
126.497 9.51791
126.612 9.96702
126.670 10.2154
126.727 10.4816
126.785 10.7671
126.842 11.0737
126.900 11.4034
126.958 11.7584
127.015 12.1410
127.073 12.5539
127.152 13.1766
127.231 13.8709
127.310 14.6473
127.390 15.5184
127.469 16.4987
127.508 17.0352
127.548 17.6060
127.588 18.2137
127.627 18.8615
127.667 19.5528
127.706 20.2912
127.760 21.3817
127.814 22.5796
127.868 23.8989
127.922 25.3558
127.976 26.9693
128.003 27.8416
128.030 28.7618
128.057 29.7332
128.084 30.7597
128.111 31.8452
128.138 32.9943
128.178 34.8049
128.218 36.7802
128.257 38.9400
128.297 41.3073
128.336 43.9088
128.376 46.7756
128.396 48.3196
128.416 49.9440
128.435 51.6544
128.455 53.4569
128.475 55.3579
128.495 57.3649
128.515 59.4854
128.534 61.7283
128.554 64.1029
128.574 66.6195
128.594 69.2896
128.614 72.1257
128.633 75.1416
128.653 78.3527
128.673 81.7758
128.693 85.4299
128.713 89.3359
128.732 93.5170
128.752 97.9991
128.772 102.811
128.797 109.465
128.822 116.782
128.848 124.850
128.860 129.196
128.873 133.770
128.885 138.585
128.898 143.659
128.911 149.008
128.923 154.651
128.936 160.609
128.948 166.901
128.961 173.552
128.974 180.586
128.993 192.474
129.013 205.479
129.033 219.719
129.053 235.323
129.073 252.429
129.092 271.182
129.112 291.737
129.132 314.254
129.152 338.895
129.172 365.820
129.191 395.186
129.211 427.138
129.231 461.803
129.251 499.284
129.271 539.652
129.290 582.938
129.310 629.121
129.330 678.122
129.350 729.797
129.370 783.926
129.389 840.211
129.409 898.270
129.449 1017.76
129.489 1139.21
129.509 1198.13
129.529 1254.87
129.549 1308.85
129.569 1358.69
129.589 1403.86
129.609 1443.58
129.632 1481.34
129.655 1510.15
129.677 1529.58
129.700 1539.04
129.713 1539.92
129.734 1534.19
129.756 1519.86
129.777 1497.27
129.798 1466.94
129.819 1429.34
129.841 1385.63
129.862 1336.54
129.883 1283.01
129.914 1198.49
129.945 1109.86
130.007 930.448
130.037 846.922
130.067 767.896
130.082 730.171
130.097 693.857
130.112 659.019
130.127 625.921
130.149 580.250
130.170 537.860
130.192 498.701
130.214 462.830
130.236 429.778
130.257 399.683
130.279 372.083
130.301 347.039
130.316 331.042
130.331 316.049
130.346 301.995
130.361 288.907
130.376 276.552
130.391 264.964
130.406 254.092
130.421 243.951
130.436 234.359
130.451 225.343
130.466 216.862
130.481 208.928
130.496 201.402
130.511 194.349
130.526 187.647
130.540 181.355
130.555 175.365
130.570 169.695
130.600 159.263
130.630 149.863
130.660 141.362
130.690 133.625
130.720 126.606
130.750 120.197
130.780 114.328
130.807 109.389
130.834 104.825
130.862 100.584
130.889 96.6345
130.916 92.9496
130.943 89.5056
130.970 86.2813
130.998 83.2577
131.025 80.4079
131.052 77.7377
131.079 75.2227
131.106 72.8508
131.134 70.6110
131.161 68.4934
131.188 66.4890
131.215 64.5895
131.245 62.6075
131.275 60.7412
131.305 58.9700
131.335 57.2984
131.395 54.2044
131.455 51.4168
131.515 48.8869
131.574 46.5906
131.634 44.4922
131.694 42.5751
131.735 41.3558
131.776 40.2071
131.817 39.1211
131.857 38.0929
131.898 37.1186
131.939 36.1941
132.021 34.4811
132.102 32.9276
132.184 31.5165
132.266 30.2288
132.347 29.0497
132.407 28.2462
132.467 27.4904
132.527 26.7784
132.587 26.1079
132.647 25.4735
132.706 24.8735
132.766 24.3053
132.826 23.7676
132.946 22.7705
133.066 21.8693
133.185 21.0507
133.305 20.3044
133.447 19.5035
133.588 18.7793
133.730 18.1219
133.871 17.5230
134.013 16.9756
134.154 16.4734
134.296 16.0108
134.437 15.5834
134.557 15.2459
134.676 14.9293
134.796 14.6315
134.916 14.3510
135.036 14.0861
135.155 13.8359
135.275 13.5991
135.395 13.3747
135.634 12.9590
135.874 12.5828
136.113 12.2403
136.353 11.9275
136.538 11.7035
136.723 11.4934
136.908 11.2961
137.093 11.1105
137.278 10.9357
137.463 10.7702
137.833 10.4637
138.203 10.1866
138.573 9.93482
138.943 9.70466
139.313 9.49326
139.705 9.28704
140.097 9.09669
140.488 8.92017
140.880 8.75578
141.272 8.60208
141.664 8.45827
142.448 8.19545
142.926 8.04851
143.405 7.91042
143.884 7.78028
144.363 7.65804
144.842 7.54251
145.321 7.43288
145.800 7.32932
146.279 7.23129
146.758 7.13811
147.237 7.04999
148.194 6.88821
148.673 6.81422
149.152 6.74522
149.631 6.68082
150.110 6.62125
150.981 6.52667
151.416 6.48614
151.851 6.45093
152.287 6.42058
152.722 6.39626
153.158 6.37822
153.593 6.36645
154.028 6.36265
154.464 6.36652
154.899 6.37913
155.334 6.40223
155.770 6.43529
156.205 6.48069
156.640 6.53779
157.076 6.61147
157.424 6.68253
157.772 6.76542
158.121 6.86130
158.469 6.97148
158.948 7.14916
159.427 7.36119
159.906 7.61282
160.384 7.91028
160.863 8.26096
161.103 8.45900
161.342 8.67370
161.582 8.90662
161.821 9.15911
162.061 9.43305
162.300 9.73004
162.583 10.1138
162.866 10.5355
163.149 10.9990
163.432 11.5118
163.715 12.0788
163.998 12.7054
164.281 13.3988
164.564 14.1668
164.803 14.8822
165.043 15.6638
165.282 16.5197
165.522 17.4573
165.761 18.4867
166.001 19.6178
166.240 20.8630
166.360 21.5327
166.479 22.2364
166.599 22.9767
166.719 23.7546
166.839 24.5740
166.958 25.4359
167.078 26.3446
167.198 27.3017
167.318 28.3110
167.437 29.3762
167.557 30.5020
167.677 31.6907
167.797 32.9477
167.916 34.2777
168.036 35.6875
168.156 37.1803
168.275 38.7636
168.395 40.4444
168.558 42.9081
168.722 45.5862
168.885 48.5047
169.048 51.6864
169.211 55.1685
169.375 58.9861
169.538 63.1862
169.620 65.4418
169.701 67.8105
169.821 71.5082
169.941 75.4869
170.060 79.7777
170.180 84.4123
170.300 89.4307
170.420 94.8651
170.539 100.765
170.659 107.183
170.779 114.183
170.898 121.823
171.018 130.186
171.138 139.361
171.258 149.462
171.377 160.592
171.437 166.594
171.497 172.900
171.557 179.551
171.617 186.550
171.677 193.945
171.737 201.752
171.796 210.000
171.856 218.708
171.916 227.940
171.976 237.704
172.036 248.076
172.096 259.067
172.156 270.766
172.215 283.210
172.275 296.462
172.335 310.565
172.395 325.641
172.455 341.723
172.515 358.959
172.575 377.394
172.640 399.063
172.705 422.504
172.770 447.910
172.836 475.498
172.901 505.517
172.966 538.244
173.032 574.000
173.097 613.150
173.157 652.404
173.217 695.235
173.277 742.066
173.336 793.288
173.396 849.626
173.456 911.628
173.516 980.022
173.576 1055.51
173.606 1096.38
173.636 1139.29
173.666 1184.66
173.696 1232.35
173.726 1282.82
173.756 1335.93
173.786 1392.02
173.815 1451.28
173.845 1514.13
173.875 1580.38
173.905 1650.47
173.935 1724.64
173.965 1803.42
173.995 1886.56
174.025 1974.58
174.055 2067.78
174.084 2165.44
174.114 2268.75
174.144 2378.01
174.173 2493.49
174.203 2615.47
174.232 2744.21
174.262 2879.94
174.292 3022.37
174.321 3172.60
174.351 3330.26
174.380 3495.39
174.410 3667.91
174.469 4034.39
174.528 4426.29
174.585 4825.67
174.643 5237.87
174.700 5653.54
174.757 6061.00
174.814 6446.63
174.871 6795.68
174.900 6951.81
174.929 7093.28
174.957 7218.41
174.986 7325.37
175.014 7413.58
175.043 7481.56
175.072 7528.47
175.100 7553.72
175.138 7553.50
175.169 7524.81
175.200 7471.17
175.231 7393.55
175.262 7293.64
175.293 7172.42
175.324 7032.08
175.355 6874.70
175.386 6703.11
175.448 6323.70
175.510 5913.41
175.634 5063.60
175.697 4643.88
175.760 4245.91
175.791 4056.42
175.823 3874.68
175.854 3699.83
175.886 3533.15
175.917 3373.62
175.948 3222.22
175.980 3077.87
176.011 2941.32
176.043 2811.46
176.074 2688.86
176.106 2572.47
176.137 2462.73
176.170 2354.78
176.202 2253.26
176.235 2157.50
176.268 2067.15
176.300 1981.90
176.333 1901.44
176.365 1825.47
176.398 1753.71
176.431 1685.70
176.463 1621.60
176.496 1560.96
176.529 1503.56
176.561 1449.19
176.594 1397.67
176.626 1348.81
176.659 1302.44
176.724 1216.44
176.789 1138.82
176.855 1068.35
176.920 1004.41
176.985 946.068
177.050 892.868
177.116 844.162
177.181 799.469
177.225 771.052
177.270 744.188
177.314 718.768
177.359 694.691
177.403 671.866
177.448 650.207
177.537 610.125
177.626 573.801
177.715 540.846
177.804 510.787
177.893 483.355
177.958 464.686
178.023 447.184
178.088 430.728
178.153 415.237
178.219 400.616
178.284 386.840
178.349 373.827
178.414 361.519
178.480 349.850
178.545 338.809
178.675 318.388
178.806 299.929
178.936 283.208
179.067 267.990
179.197 254.106
179.328 241.403
179.458 229.756
179.589 219.035
179.719 209.155
179.849 200.017
179.980 191.562
180.093 184.748
180.205 178.353
180.318 172.340
180.431 166.680
180.543 161.334
180.656 156.284
180.769 151.507
180.881 146.989
180.994 142.704
181.107 138.641
181.219 134.782
181.332 131.119
181.557 124.312
181.783 118.130
181.913 114.804
182.044 111.649
182.174 108.653
182.304 105.806
182.565 100.514
182.826 95.7068
183.087 91.3213
183.348 87.3111
183.609 83.6302
183.870 80.2446
184.179 76.5784
184.487 73.2348
184.795 70.1736
185.104 67.3644
185.412 64.7803
185.720 62.4016
186.029 60.1939
186.337 58.1430
186.598 56.5199
186.859 54.9922
187.120 53.5510
187.381 52.1907
187.642 50.9040
187.903 49.6862
188.164 48.5318
188.424 47.4363
188.685 46.3951
188.946 45.4051
189.207 44.4625
189.468 43.5642
189.990 41.8884
190.512 40.3580
191.034 38.9550
191.556 37.6652
192.077 36.4755
192.599 35.3754
193.121 34.3552
193.643 33.4069
194.165 32.5233
194.687 31.6982
195.351 30.7255
196.015 29.8316
196.679 29.0010
197.343 28.2307
198.008 27.5141
198.672 26.8462
199.336 26.2222
200.000 25.6375
200.560 25.1723
201.121 24.7318
201.681 24.3134
202.241 23.9183
202.801 23.5385
203.361 23.1771
203.922 22.8298
204.482 22.5005
205.042 22.1824
205.602 21.8802
206.162 21.5884
206.723 21.3094
207.843 20.7823
208.963 20.2940
209.648 20.0134
210.333 19.7441
211.018 19.4852
211.702 19.2375
213.072 18.7696
214.441 18.3363
215.810 17.9318
217.180 17.5542
218.549 17.1999
219.919 16.8659
221.412 16.5231
222.906 16.1991
224.400 15.8927
225.894 15.6013
227.637 15.2788
229.380 14.9720
231.123 14.6786
231.994 14.5353
232.866 14.3967
233.737 14.2587
234.608 14.1246
236.351 13.8609
238.094 13.6043
239.837 13.3532
241.144 13.1678
242.451 12.9841
243.759 12.8016
245.066 12.6194
246.373 12.4371
247.026 12.3456
247.680 12.2538
248.334 12.1615
248.987 12.0686
249.641 11.9751
250.294 11.8809
250.917 11.7902
251.539 11.6986
252.162 11.6059
252.784 11.5120
253.407 11.4168
253.718 11.3687
254.029 11.3203
254.340 11.2714
254.651 11.2223
254.963 11.1729
255.274 11.1231
255.616 11.0680
255.959 11.0126
256.301 10.9571
256.643 10.9015
256.986 10.8462
257.157 10.8187
257.328 10.7914
257.499 10.7644
257.670 10.7376
257.842 10.7113
258.013 10.6855
258.215 10.6559
258.417 10.6273
258.620 10.6003
258.822 10.5752
259.024 10.5526
259.226 10.5331
259.328 10.5248
259.429 10.5176
259.530 10.5117
259.631 10.5073
259.787 10.5037
259.942 10.5049
260.098 10.5118
260.176 10.5179
260.253 10.5259
260.331 10.5362
260.409 10.5488
260.487 10.5642
260.565 10.5826
260.642 10.6045
260.720 10.6301
260.798 10.6601
260.876 10.6950
260.961 10.7397
261.047 10.7922
261.133 10.8534
261.218 10.9249
261.304 11.0083
261.389 11.1056
261.475 11.2191
261.561 11.3517
261.603 11.4262
261.646 11.5070
261.689 11.5944
261.732 11.6893
261.775 11.7922
261.817 11.9041
261.860 12.0257
261.903 12.1578
261.946 12.3021
261.989 12.4597
262.031 12.6319
262.074 12.8206
262.117 13.0276
262.160 13.2552
262.203 13.5059
262.245 13.7821
262.288 14.0885
262.331 14.4287
262.374 14.8074
262.416 15.2306
262.459 15.7050
262.502 16.2391
262.545 16.8431
262.566 17.1752
262.588 17.5297
262.609 17.9086
262.630 18.3143
262.652 18.7494
262.673 19.2167
262.695 19.7195
262.716 20.2616
262.737 20.8470
262.759 21.4804
262.780 22.1673
262.802 22.9135
262.823 23.7259
262.844 24.6122
262.866 25.5812
262.887 26.6425
262.909 27.8073
262.930 29.0817
262.946 30.0957
262.961 31.1845
262.977 32.3545
262.992 33.6043
263.008 34.9573
263.023 36.4039
263.039 37.9715
263.054 39.6486
263.070 41.4667
263.086 43.4253
263.101 45.5352
263.117 47.7925
263.132 50.2379
263.148 52.8520
263.163 55.6809
263.179 58.7010
263.200 63.2371
263.211 65.6739
263.222 68.2288
263.232 70.9059
263.243 73.7094
263.254 76.6432
263.265 79.7113
263.275 82.9173
263.286 86.2649
263.297 89.7573
263.307 93.3977
263.318 97.1890
263.329 101.134
263.339 105.234
263.350 109.491
263.366 115.939
263.382 123.217
263.399 130.831
263.415 138.871
263.432 147.233
263.448 156.007
263.465 165.072
263.481 174.461
263.498 184.150
263.519 197.115
263.541 210.463
263.562 224.105
263.584 237.943
263.605 251.865
263.626 265.749
263.669 292.872
263.709 316.616
263.729 327.605
263.749 337.850
263.769 347.330
263.789 355.794
263.810 363.193
263.830 369.444
263.847 373.918
263.865 377.415
263.882 379.907
263.900 381.373
263.925 381.666
263.950 379.838
263.966 377.696
263.981 374.818
264.012 366.888
264.043 356.290
264.073 343.336
264.107 326.989
264.140 308.793
264.173 289.280
264.207 268.976
264.240 248.317
264.274 227.879
264.307 207.988
264.341 188.962
264.357 179.852
264.374 171.044
264.391 162.557
264.407 154.405
264.424 146.600
264.441 139.148
264.457 132.053
264.474 125.354
264.488 120.089
264.501 115.060
264.515 110.264
264.529 105.728
264.542 101.380
264.556 97.2783
264.570 93.3555
264.583 89.6622
264.597 86.1368
264.611 82.7995
264.624 79.6426
264.638 76.6793
264.652 73.8583
264.665 71.2130
264.679 68.6966
264.693 66.3383
264.709 63.6222
264.726 61.0916
264.743 58.7339
264.759 56.5369
264.776 54.4890
264.793 52.5792
264.810 50.7973
264.826 49.1335
264.843 47.5788
264.860 46.1248
264.876 44.7637
264.893 43.4882
264.910 42.2917
264.926 41.1680
264.943 40.1114
264.960 39.1168
264.980 38.0113
264.999 36.9840
265.019 36.0180
265.039 35.1174
265.059 34.2676
265.078 33.4726
265.098 32.7239
265.118 32.0176
265.138 31.3470
265.157 30.7159
265.197 29.5480
265.236 28.4947
265.276 27.5425
265.309 26.8026
265.342 26.1175
265.376 25.4812
265.409 24.8891
265.443 24.3366
265.476 23.8200
265.509 23.3361
265.543 22.8819
265.576 22.4549
265.610 22.0528
265.643 21.6734
265.676 21.3151
265.710 20.9761
265.743 20.6550
265.777 20.3505
265.810 20.0613
265.877 19.5247
265.944 19.0376
266.010 18.5936
266.077 18.1875
266.144 17.8148
266.211 17.4716
266.278 17.1545
266.344 16.8609
266.408 16.6001
266.472 16.3564
266.536 16.1284
266.600 15.9149
266.663 15.7138
266.727 15.5249
266.791 15.3464
266.855 15.1780
266.918 15.0185
266.982 14.8673
267.046 14.7238
267.110 14.5877
267.237 14.3347
267.365 14.1045
267.438 13.9820
267.510 13.8654
267.656 13.6486
267.802 13.4509
267.948 13.2698
268.093 13.1031
268.239 12.9492
268.385 12.8065
268.531 12.6736
268.664 12.5593
268.798 12.4517
268.931 12.3499
269.065 12.2536
269.199 12.1622
269.332 12.0753
269.466 11.9925
269.599 11.9134
269.867 11.7654
270.134 11.6289
270.401 11.5025
270.668 11.3846
270.911 11.2840
271.154 11.1888
271.397 11.0983
271.640 11.0117
271.883 10.9289
272.125 10.8494
272.611 10.6991
273.097 10.5585
273.583 10.4258
274.069 10.2997
274.554 10.1789
275.137 10.0402
275.720 9.90628
276.255 9.78720
276.789 9.67095
277.324 9.55707
277.858 9.44518
278.392 9.33484
278.927 9.22573
279.995 9.01032
281.064 8.79713
282.133 8.58494
283.202 8.37275
284.270 8.15993
285.339 7.94599
286.408 7.73074
286.942 7.62263
287.477 7.51423
288.011 7.40559
288.546 7.29682
289.080 7.18796
289.614 7.07917
290.149 6.97061
290.683 6.86250
291.217 6.75503
291.752 6.64856
292.286 6.54342
292.821 6.44002
293.404 6.32978
293.987 6.22278
294.570 6.12053
295.152 6.02401
295.735 5.93463
296.318 5.85419
296.901 5.78484
297.484 5.72925
298.019 5.69314
298.553 5.67440
299.087 5.67677
299.622 5.70481
300.156 5.76415
300.423 5.80765
300.691 5.86171
300.958 5.92744
301.225 6.00611
301.492 6.09911
301.759 6.20783
302.051 6.34613
302.342 6.50770
302.609 6.67956
302.877 6.87680
303.144 7.10211
303.411 7.35877
303.678 7.65060
303.812 7.81105
303.945 7.98198
304.079 8.16404
304.213 8.35792
304.346 8.56438
304.480 8.78402
304.686 9.15208
304.893 9.55761
305.099 10.0044
305.306 10.4966
305.409 10.7614
305.512 11.0391
305.615 11.3311
305.719 11.6376
305.822 11.9600
305.925 12.2987
306.028 12.6548
306.132 13.0293
306.265 13.5433
306.399 14.0923
306.532 14.6789
306.666 15.3061
306.800 15.9770
306.933 16.6950
307.067 17.4642
307.200 18.2878
307.334 19.1719
307.467 20.1208
307.601 21.1401
307.735 22.2361
307.868 23.4156
308.002 24.6861
308.135 26.0560
308.269 27.5347
308.403 29.1327
308.536 30.8616
308.670 32.7346
308.803 34.7662
308.937 36.9731
309.071 39.3739
309.204 41.9897
309.338 44.8446
309.471 47.9656
309.538 49.6356
309.605 51.3841
309.672 53.2158
309.739 55.1357
309.805 57.1489
309.872 59.2613
309.939 61.4788
310.006 63.8082
310.073 66.2564
310.139 68.8312
310.206 71.5406
310.273 74.3937
310.340 77.4001
310.407 80.5653
310.473 83.9101
310.540 87.4421
310.607 91.1746
310.674 95.1221
310.741 99.3003
310.807 103.726
310.874 108.419
310.941 113.398
311.008 118.687
311.075 124.310
311.141 130.293
311.208 136.666
311.275 143.463
311.342 150.718
311.409 158.474
311.475 166.760
311.542 175.667
311.609 185.209
311.676 195.462
311.743 206.494
311.809 218.382
311.876 231.210
311.943 245.074
312.010 260.084
312.077 276.360
312.143 294.039
312.210 313.279
312.277 334.255
312.344 357.168
312.411 382.248
312.477 409.757
312.544 439.992
312.611 473.296
312.644 491.219
312.678 510.060
312.711 529.876
312.745 550.731
312.778 572.689
312.811 595.822
312.845 620.204
312.878 645.917
312.912 673.045
312.945 701.681
312.978 731.921
313.012 763.868
313.045 797.630
313.078 833.212
313.112 870.948
313.145 910.860
313.179 953.080
313.212 997.743
313.245 1044.99
313.279 1094.96
313.312 1147.81
313.346 1203.67
313.379 1262.68
313.412 1325.00
313.446 1390.74
313.479 1460.02
313.513 1532.96
313.546 1609.64
313.579 1690.12
313.613 1774.18
313.647 1863.39
313.680 1956.49
313.748 2153.90
313.816 2364.96
313.883 2587.16
314.018 3048.80
314.086 3277.11
314.154 3494.58
314.197 3624.92
314.240 3745.28
314.284 3853.98
314.327 3949.11
314.370 4029.01
314.413 4092.20
314.457 4137.57
314.500 4164.34
314.543 4172.09
314.579 4164.34
314.614 4144.22
314.649 4112.09
314.684 4068.46
314.719 4014.00
314.755 3949.48
314.790 3875.79
314.825 3794.13
314.895 3609.83
314.966 3405.18
315.106 2967.24
315.165 2783.04
315.224 2603.08
315.283 2429.71
315.342 2264.91
315.401 2109.25
315.460 1963.66
315.519 1828.35
315.577 1703.44
315.636 1588.39
315.695 1482.88
315.754 1386.13
315.812 1297.53
315.871 1216.43
315.930 1142.20
315.988 1074.22
316.047 1011.93
316.106 954.700
316.165 902.231
316.223 853.979
316.282 809.541
316.341 768.553
316.399 730.689
316.458 695.653
316.517 663.183
316.573 634.332
316.629 607.470
316.685 582.334
316.741 558.864
316.797 536.842
316.853 516.224
316.909 496.827
316.965 478.622
317.021 461.452
317.077 445.299
317.133 430.030
317.189 415.633
317.246 401.995
317.302 389.109
317.358 376.878
317.414 365.298
317.472 353.770
317.531 342.861
317.590 332.510
317.649 322.679
317.766 304.427
317.883 287.890
318.001 272.833
318.118 259.103
318.236 246.536
318.353 235.001
318.492 222.543
318.631 211.214
318.770 200.879
318.908 191.430
319.047 182.754
319.186 174.771
319.325 167.405
319.463 160.595
319.581 155.215
319.698 150.164
319.816 145.409
319.933 140.934
320.051 136.709
320.168 132.722
320.285 128.953
320.403 125.384
320.520 121.999
320.638 118.790
320.755 115.742
320.873 112.844
321.107 107.456
321.342 102.560
321.577 98.0921
321.812 94.0042
322.047 90.2499
322.282 86.7949
322.517 83.6043
322.751 80.6529
322.986 77.9140
323.221 75.3691
323.424 73.3119
323.627 71.3767
323.830 69.5511
324.032 67.8261
324.235 66.1913
324.438 64.6422
324.641 63.1727
324.844 61.7774
325.047 60.4505
325.249 59.1886
325.452 57.9862
325.655 56.8403
326.061 54.7017
326.466 52.7475
326.701 51.6912
326.936 50.6854
327.171 49.7268
327.406 48.8127
327.876 47.1050
328.345 45.5422
328.815 44.1069
329.285 42.7852
329.755 41.5643
330.224 40.4334
330.523 39.7560
330.822 39.1094
331.420 37.9001
332.018 36.7914
332.616 35.7720
333.213 34.8349
333.811 33.9642
334.409 33.1553
335.007 32.4029
335.477 31.8476
335.946 31.3212
336.416 30.8214
336.886 30.3466
337.356 29.8947
337.825 29.4641
338.295 29.0536
338.765 28.6616
339.234 28.2868
339.704 27.9283
340.644 27.2560
341.583 26.6373
342.522 26.0658
343.462 25.5364
344.401 25.0446
345.341 24.5864
346.280 24.1585
347.220 23.7578
348.159 23.3819
349.099 23.0283
350.038 22.6952
350.721 22.4654
351.661 22.1651
352.600 21.8790
353.540 21.6067
354.479 21.3494
355.418 21.1043
356.358 20.8698
357.297 20.6468
358.237 20.4341
359.176 20.2296
360.116 20.0342
361.055 19.8473
361.995 19.6671
362.934 19.4940
363.873 19.3281
365.752 19.0131
367.631 18.7205
369.510 18.4466
371.389 18.1898
373.268 17.9486
375.147 17.7207
377.026 17.5053
378.904 17.3009
380.783 17.1063
382.491 16.9374
384.199 16.7764
385.908 16.6201
387.616 16.4707
389.324 16.3250
391.032 16.1853
394.448 15.9176
397.864 15.6659
399.572 15.5445
401.280 15.4266
402.988 15.3106
404.696 15.1976
408.112 14.9773
410.162 14.8492
412.212 14.7232
414.262 14.5991
416.311 14.4767
419.215 14.3061
422.119 14.1378
425.023 13.9712
427.926 13.8058
429.378 13.7233
430.830 13.6410
432.282 13.5587
433.734 13.4765
435.186 13.3942
436.637 13.3118
438.089 13.2294
439.541 13.1469
441.420 13.0400
443.299 12.9330
445.178 12.8262
447.057 12.7197
447.996 12.6667
448.936 12.6139
449.875 12.5615
450.814 12.5095
451.754 12.4580
452.693 12.4072
453.633 12.3572
454.572 12.3081
455.939 12.2391
457.305 12.1735
458.245 12.1310
459.184 12.0912
460.123 12.0546
461.063 12.0218
462.002 11.9936
462.942 11.9711
463.881 11.9552
464.821 11.9476
465.504 11.9481
466.443 11.9588
467.383 11.9834
467.853 12.0018
468.322 12.0249
468.792 12.0532
469.262 12.0872
469.731 12.1276
470.201 12.1751
470.671 12.2306
471.141 12.2948
471.610 12.3690
472.080 12.4542
472.550 12.5517
473.019 12.6631
473.532 12.8020
474.044 12.9612
474.557 13.1458
475.069 13.3585
475.582 13.6034
476.094 13.8855
476.606 14.2105
477.119 14.5858
477.589 14.9812
478.058 15.4336
478.528 15.9525
478.998 16.5491
479.233 16.8807
479.467 17.2369
479.702 17.6202
479.937 18.0326
480.172 18.4772
480.407 18.9564
480.642 19.4739
480.877 20.0331
481.218 20.9299
481.560 21.9380
481.901 23.0746
482.243 24.3586
482.585 25.8131
482.755 26.6137
482.926 27.4695
483.097 28.3852
483.268 29.3659
483.439 30.4170
483.609 31.5448
483.844 33.2337
484.079 35.1011
484.314 37.1710
484.549 39.4704
484.784 42.0340
485.019 44.8983
485.136 46.4590
485.254 48.1115
485.371 49.8642
485.488 51.7250
485.702 55.4138
485.809 57.4214
485.915 59.5461
486.022 61.8008
486.129 64.1908
486.236 66.7315
486.342 69.4295
486.449 72.3025
486.556 75.3591
486.663 78.6201
486.769 82.0965
486.876 85.8134
486.983 89.7848
487.090 94.0415
487.196 98.6012
487.314 104.012
487.431 109.866
487.549 116.221
487.666 123.118
487.784 130.628
487.901 138.806
488.018 147.732
488.136 157.491
488.253 168.190
488.371 179.918
488.488 192.806
488.606 206.994
488.723 222.649
488.840 239.920
488.958 259.014
489.017 269.311
489.075 280.145
489.134 291.567
489.193 303.570
489.251 316.204
489.310 329.502
489.369 343.499
489.428 358.229
489.486 373.727
489.545 390.027
489.604 407.192
489.662 425.197
489.721 444.099
489.780 463.926
489.839 484.701
489.897 506.443
490.015 552.863
490.080 580.460
490.146 609.249
490.277 670.199
490.408 735.063
490.539 802.734
490.670 871.581
490.801 939.449
490.932 1003.72
490.997 1033.61
491.063 1061.45
491.172 1102.58
491.227 1120.17
491.281 1135.53
491.336 1148.52
491.391 1159.00
491.445 1166.87
491.500 1172.04
491.588 1174.68
491.659 1171.69
491.730 1164.23
491.801 1152.47
491.872 1136.69
491.943 1117.23
492.014 1094.48
492.085 1068.86
492.156 1040.82
492.299 979.283
492.441 913.339
492.583 846.031
492.725 779.827
492.872 714.443
492.945 683.263
493.018 653.287
493.092 624.497
493.165 597.010
493.239 570.764
493.312 545.828
493.385 522.114
493.459 499.657
493.532 478.357
493.605 458.227
493.679 439.165
493.752 421.170
493.825 404.163
493.899 388.093
493.975 372.304
494.051 357.416
494.127 343.376
494.204 330.146
494.280 317.642
494.356 305.835
494.433 294.679
494.509 284.148
494.585 274.172
494.661 264.731
494.738 255.789
494.814 247.326
494.890 239.289
494.966 231.672
495.043 224.429
495.119 217.554
495.271 204.780
495.424 193.204
495.577 182.674
495.729 173.082
495.882 164.312
496.034 156.284
496.187 148.914
496.339 142.131
496.443 137.808
496.547 133.717
496.651 129.840
496.755 126.160
496.963 119.346
497.171 113.178
497.379 107.576
497.587 102.469
497.795 97.8003
498.003 93.5208
498.253 88.8409
498.502 84.5990
498.752 80.7412
499.002 77.2218
499.251 74.0013
499.501 71.0460
499.750 68.3267
500.000 65.8182
500.181 64.1188
500.362 62.5126
500.543 60.9914
500.724 59.5512
500.905 58.1846
501.086 56.8879
501.448 54.4804
501.809 52.2916
502.171 50.2964
502.533 48.4731
502.895 46.8024
503.144 45.7328
503.393 44.7220
503.641 43.7657
503.890 42.8598
504.139 42.0007
504.388 41.1851
504.637 40.4099
504.885 39.6726
505.383 38.3007
505.881 37.0518
506.378 35.9109
506.876 34.8655
507.373 33.9042
507.871 33.0182
508.368 32.1989
508.866 31.4397
509.363 30.7343
509.861 30.0776
510.359 29.4651
510.856 28.8940
511.354 28.3590
511.851 27.8551
512.349 27.3811
512.846 26.9348
513.344 26.5138
513.842 26.1161
514.339 25.7399
514.837 25.3836
515.334 25.0455
515.832 24.7245
516.329 24.4192
516.827 24.1287
517.325 23.8517
517.822 23.5875
518.817 23.0939
519.812 22.6418
520.807 22.2263
521.803 21.8432
522.798 21.4887
523.793 21.1597
524.788 20.8537
525.783 20.5681
526.778 20.3011
527.864 20.0287
528.949 19.7748
529.945 19.5568
530.940 19.3499
531.935 19.1537
532.930 18.9687
533.925 18.7930
534.920 18.6255
535.915 18.4665
536.910 18.3151
537.906 18.1700
538.901 18.0315
540.891 17.7722
542.881 17.5333
544.871 17.3121
546.048 17.1890
547.224 17.0711
549.576 16.8487
551.928 16.6426
554.280 16.4509
556.632 16.2714
558.984 16.1042
561.336 15.9447
563.688 15.7939
565.679 15.6731
567.669 15.5566
569.659 15.4439
571.650 15.3361
575.630 15.1302
577.620 15.0321
579.611 14.9369
583.591 14.7527
587.572 14.5769
591.552 14.4075
595.533 14.2428
598.427 14.1256
602.408 13.9668
606.389 13.8095
610.369 13.6528
614.350 13.4954
616.340 13.4161
618.330 13.3362
622.311 13.1737
624.301 13.0910
626.291 13.0066
628.281 12.9208
630.272 12.8334
632.262 12.7437
634.252 12.6517
636.243 12.5569
638.233 12.4590
640.223 12.3577
642.213 12.2525
644.204 12.1428
645.199 12.0862
646.194 12.0282
647.641 11.9413
649.089 11.8512
650.536 11.7574
651.984 11.6596
653.431 11.5577
654.155 11.5050
654.879 11.4510
655.602 11.3957
656.326 11.3390
657.050 11.2809
657.773 11.2212
658.769 11.1367
659.764 11.0490
660.759 10.9580
661.754 10.8636
662.252 10.8150
662.749 10.7654
663.247 10.7149
663.744 10.6635
664.242 10.6111
664.739 10.5577
665.237 10.5033
665.735 10.4479
666.277 10.3864
666.820 10.3238
667.363 10.2602
667.906 10.1956
668.403 10.1357
668.901 10.0751
669.398 10.0140
669.896 9.95271
670.394 9.89140
670.891 9.83041
671.389 9.77017
671.886 9.71123
672.384 9.65425
672.881 9.60011
673.130 9.57444
673.379 9.54992
673.628 9.52674
673.876 9.50512
674.125 9.48530
674.374 9.46756
674.623 9.45221
674.872 9.43964
675.120 9.43023
675.369 9.42446
675.618 9.42285
675.867 9.42600
676.138 9.43569
676.409 9.45303
676.681 9.47937
676.952 9.51627
677.201 9.56089
677.450 9.61748
677.699 9.68796
677.947 9.77457
678.196 9.88001
678.445 10.0075
678.694 10.1608
678.943 10.3444
679.191 10.5641
679.316 10.6894
679.440 10.8264
679.565 10.9761
679.689 11.1397
679.813 11.3185
679.938 11.5139
680.062 11.7277
680.186 11.9618
680.311 12.2181
680.435 12.4990
680.560 12.8069
680.684 13.1449
680.808 13.5163
680.933 13.9243
681.080 14.4608
681.227 15.0629
681.374 15.7405
681.521 16.5050
681.668 17.3699
681.815 18.3511
681.962 19.4675
682.035 20.0834
682.109 20.7420
682.233 21.9644
682.358 23.3396
682.420 24.0919
682.482 24.8916
682.544 25.7425
682.606 26.6486
682.669 27.6145
682.731 28.6449
682.793 29.7452
682.855 30.9214
682.917 32.1801
682.980 33.5284
683.042 34.9744
683.104 36.5243
683.189 38.8334
683.274 41.3850
683.358 44.2150
683.443 47.3618
683.486 49.0679
683.528 50.8706
683.570 52.7768
683.613 54.7940
683.655 56.9301
683.698 59.1938
683.740 61.5944
683.782 64.1423
683.845 68.1696
683.907 72.5759
683.969 77.4044
684.031 82.7034
684.093 88.5268
684.156 94.9344
684.218 101.993
684.280 109.774
684.342 118.358
684.404 127.829
684.436 132.926
684.467 138.278
684.498 143.899
684.529 149.799
684.560 155.992
684.591 162.488
684.622 169.300
684.653 176.440
684.715 191.744
684.778 208.480
684.840 226.715
684.902 246.491
684.964 267.822
685.026 290.647
685.089 314.974
685.151 340.646
685.213 367.488
685.275 395.215
685.411 457.619
685.479 488.666
685.547 518.754
685.615 547.306
685.683 573.592
685.751 596.944
685.819 616.719
685.864 627.675
685.909 636.685
685.955 643.642
686.000 648.470
686.045 651.125
686.082 651.660
686.119 650.752
686.156 648.425
686.193 644.712
686.230 639.660
686.266 633.327
686.340 617.098
686.414 596.642
686.487 572.763
686.561 546.238
686.634 517.874
686.790 455.294
686.868 424.187
686.945 394.000
687.023 365.173
687.101 338.011
687.140 325.101
687.178 312.702
687.217 300.759
687.256 289.337
687.297 277.905
687.337 267.002
687.378 256.617
687.418 246.761
687.459 237.371
687.500 228.475
687.540 220.012
687.581 212.005
687.621 204.393
687.662 197.178
687.702 190.339
687.743 183.872
687.784 177.726
687.824 171.912
687.865 166.384
687.905 161.151
687.946 156.173
687.986 151.445
688.027 146.953
688.067 142.693
688.108 138.631
688.149 134.775
688.230 127.595
688.311 121.060
688.392 115.111
688.473 109.675
688.554 104.697
688.610 101.533
688.665 98.5497
688.720 95.7292
688.775 93.0594
688.831 90.5252
688.886 88.1260
688.941 85.8481
688.997 83.6834
689.107 79.6604
689.218 76.0108
689.329 72.6856
689.439 69.6464
689.520 67.5780
689.602 65.6368
689.683 63.8080
689.764 62.0868
689.845 60.4609
689.926 58.9268
690.007 57.4757
690.088 56.1015
690.170 54.7971
690.251 53.5607
690.332 52.3859
690.413 51.2687
690.575 49.1904
690.737 47.3012
690.900 45.5757
691.062 43.9967
691.224 42.5454
691.386 41.2095
691.549 39.9750
691.711 38.8328
691.873 37.7722
692.035 36.7865
692.176 35.9887
692.316 35.2375
692.456 34.5279
692.596 33.8576
692.736 33.2227
692.876 32.6212
693.016 32.0504
693.156 31.5081
693.297 30.9919
693.437 30.5008
693.717 29.5864
693.997 28.7526
694.277 27.9901
694.440 27.5775
694.602 27.1845
694.927 26.4522
695.251 25.7836
695.576 25.1712
695.900 24.6080
696.225 24.0888
696.549 23.6087
696.874 23.1634
697.095 22.8779
697.316 22.6059
697.538 22.3465
697.759 22.0990
698.201 21.6365
698.644 21.2129
699.086 20.8229
699.529 20.4625
699.971 20.1286
700.414 19.8185
700.738 19.6048
701.063 19.4017
701.387 19.2085
701.712 19.0244
702.036 18.8488
702.361 18.6811
703.010 18.3672
703.659 18.0789
704.308 17.8133
704.957 17.5676
705.606 17.3395
706.314 17.1085
707.022 16.8939
707.730 16.6941
708.438 16.5079
709.087 16.3474
709.736 16.1954
710.385 16.0514
711.034 15.9148
711.683 15.7849
712.332 15.6611
712.981 15.5431
713.630 15.4303
714.280 15.3222
714.929 15.2186
716.227 15.0233
717.525 14.8421
718.823 14.6730
719.767 14.5568
720.711 14.4455
721.655 14.3389
722.599 14.2363
723.543 14.1376
724.487 14.0425
726.375 13.8612
728.263 13.6900
730.151 13.5276
732.039 13.3725
733.927 13.2234
735.816 13.0794
737.704 12.9396
740.300 12.7527
742.896 12.5703
745.492 12.3909
748.088 12.2132
750.684 12.0358
753.280 11.8575
754.579 11.7677
755.877 11.6772
758.473 11.4936
760.479 11.3487
762.485 11.2005
764.491 11.0483
766.497 10.8914
767.500 10.8111
768.503 10.7291
769.506 10.6458
770.509 10.5610
771.512 10.4740
772.515 10.3851
773.519 10.2941
774.522 10.2009
775.820 10.0766
777.118 9.94788
778.416 9.81427
779.714 9.67533
780.363 9.60369
781.012 9.53053
781.661 9.45576
782.310 9.37931
782.959 9.30109
783.608 9.22103
784.257 9.13906
784.906 9.05508
785.850 8.92929
786.499 8.84012
787.148 8.74856
787.797 8.65457
788.446 8.55814
789.095 8.45917
789.744 8.35764
790.393 8.25353
791.042 8.14687
791.662 8.04270
792.281 7.93642
792.901 7.82821
793.211 7.77347
793.520 7.71841
793.830 7.66305
794.140 7.60749
794.450 7.55184
794.760 7.49623
795.069 7.44076
795.379 7.38562
795.689 7.33099
795.999 7.27713
796.323 7.22184
796.648 7.16813
796.972 7.11648
797.297 7.06746
797.621 7.02177
797.946 6.98030
798.270 6.94408
798.595 6.91442
798.919 6.89288
799.244 6.88145
799.406 6.88026
799.568 6.88255
799.731 6.88872
799.893 6.89921
800.055 6.91455
800.217 6.93527
800.380 6.96204
800.542 6.99555
800.704 7.03664
800.866 7.08617
801.029 7.14524
801.191 7.21495
801.397 7.32135
801.604 7.45052
801.810 7.60648
802.017 7.79405
802.179 7.96737
802.341 8.16693
802.504 8.39681
802.666 8.66126
802.828 8.96592
802.990 9.31674
803.153 9.72171
803.315 10.1894
803.463 10.6787
803.610 11.2386
803.684 11.5489
803.758 11.8811
803.831 12.2379
803.905 12.6204
803.979 13.0319
804.053 13.4739
804.126 13.9502
804.200 14.4628
804.274 15.0164
804.348 15.6134
804.421 16.2597
804.495 16.9585
804.576 17.7964
804.657 18.7127
804.738 19.7176
804.820 20.8219
804.901 22.0396
804.982 23.3821
805.063 24.8677
805.104 25.6711
805.144 26.5158
805.185 27.4090
805.225 28.3519
805.266 29.3481
805.306 30.3988
805.347 31.5134
805.387 32.6909
805.428 33.9424
805.469 35.2671
805.509 36.6777
805.550 38.1777
805.590 39.7746
805.631 41.4721
805.671 43.2877
805.712 45.2225
805.753 47.2969
805.793 49.5131
805.824 51.3408
805.856 53.2655
805.887 55.3068
805.918 57.4599
805.950 59.7474
805.981 62.1643
806.013 64.7364
806.044 67.4585
806.075 70.3605
806.107 73.4369
806.138 76.7217
806.169 80.2097
806.201 83.9396
806.232 87.9060
806.263 92.1394
806.295 96.6607
806.335 102.991
806.376 109.895
806.416 117.430
806.457 125.635
806.497 134.617
806.538 144.399
806.579 155.103
806.619 166.751
806.660 179.479
806.700 193.338
806.741 208.406
806.781 224.720
806.822 242.433
806.862 261.525
806.903 282.150
806.944 304.254
806.984 327.983
807.025 353.301
807.065 380.207
807.106 408.607
807.146 438.590
807.187 469.934
807.228 502.686
807.268 536.546
807.349 606.759
807.429 679.243
807.510 751.801
807.590 821.849
807.631 855.620
807.672 887.636
807.713 917.523
807.754 944.858
807.795 969.437
807.836 990.832
807.877 1008.88
807.918 1023.25
807.959 1033.85
808.000 1040.50
808.027 1042.72
808.072 1042.50
808.116 1037.60
808.161 1028.12
808.205 1014.31
808.249 996.345
808.294 974.585
808.338 949.396
808.382 921.254
808.428 889.823
808.473 856.266
808.563 784.511
808.654 709.587
808.744 634.999
808.791 597.249
808.838 560.691
808.885 525.493
808.932 491.846
808.979 459.892
809.026 429.727
809.073 401.402
809.120 374.932
809.167 350.250
809.213 327.417
809.260 306.316
809.307 286.866
809.354 268.941
809.401 252.518
809.448 237.457
809.495 223.655
809.527 214.909
809.559 206.671
809.591 198.911
809.623 191.599
809.655 184.708
809.687 178.211
809.719 172.083
809.751 166.299
809.783 160.837
809.815 155.675
809.847 150.794
809.879 146.175
809.911 141.800
809.943 137.653
809.975 133.719
810.007 129.995
810.054 124.842
810.101 120.063
810.148 115.611
810.195 111.458
810.242 107.569
810.288 103.936
810.335 100.529
810.382 97.3286
810.429 94.3122
810.476 91.4769
810.523 88.8020
810.570 86.2752
810.617 83.8849
810.664 81.6212
810.711 79.4747
810.758 77.4370
810.851 73.6544
810.945 70.2279
811.039 67.1057
811.133 64.2566
811.227 61.6426
811.321 59.2422
811.415 57.0269
811.508 54.9813
811.598 53.1674
811.688 51.4769
811.777 49.8982
811.867 48.4227
811.956 47.0380
812.046 45.7377
812.135 44.5146
812.225 43.3637
812.315 42.2767
812.404 41.2498
812.494 40.2783
812.583 39.3591
812.673 38.4864
812.762 37.6578
812.852 36.8701
812.942 36.1215
813.035 35.3741
813.129 34.6638
813.317 33.3416
813.505 32.1375
813.692 31.0369
813.880 30.0274
814.068 29.0985
814.255 28.2412
814.443 27.4481
814.580 26.9073
814.716 26.3945
814.853 25.9076
814.989 25.4448
815.126 25.0043
815.262 24.5845
815.535 23.8016
815.808 23.0859
816.081 22.4290
816.354 21.8241
816.627 21.2652
816.815 20.9051
817.002 20.5630
817.190 20.2374
817.378 19.9272
817.566 19.6314
817.753 19.3489
818.129 18.8204
818.504 18.3351
818.879 17.8879
819.255 17.4741
819.630 17.0900
819.971 16.7637
820.313 16.4571
820.654 16.1684
820.995 15.8961
821.370 15.6132
821.746 15.3459
822.121 15.0927
822.497 14.8527
822.872 14.6245
823.247 14.4073
823.623 14.2000
823.998 14.0018
824.373 13.8120
824.749 13.6300
825.500 13.2866
826.250 12.9674
827.001 12.6690
827.684 12.4134
828.366 12.1707
829.049 11.9394
829.731 11.7184
830.414 11.5067
831.096 11.3027
831.779 11.1052
832.461 10.9139
833.212 10.7099
833.963 10.5118
834.713 10.3190
835.464 10.1308
836.215 9.94666
836.966 9.76614
837.716 9.58884
838.467 9.41442
839.218 9.24250
839.969 9.07291
840.719 8.90538
841.470 8.73975
842.221 8.57587
842.972 8.41370
843.722 8.25312
844.473 8.09417
845.633 7.85181
846.794 7.61387
847.954 7.38107
849.114 7.15467
849.694 7.04434
850.274 6.93632
850.854 6.83068
851.435 6.72788
852.015 6.62869
852.595 6.53353
853.175 6.44289
853.755 6.35744
854.506 6.25587
855.257 6.16637
856.007 6.09139
856.758 6.03391
857.509 5.99755
858.260 5.98670
859.010 6.00678
859.761 6.06439
860.307 6.13447
860.853 6.23246
861.399 6.36276
861.945 6.53027
862.491 6.74051
862.866 6.91394
863.242 7.11451
863.617 7.34529
863.993 7.60948
864.368 7.91111
864.743 8.25463
865.119 8.64518
865.494 9.08853
865.682 9.33219
865.869 9.59169
866.057 9.86804
866.245 10.1623
866.433 10.4757
866.620 10.8094
866.808 11.1647
866.996 11.5430
867.183 11.9462
867.371 12.3757
867.559 12.8335
867.746 13.3214
867.934 13.8416
868.122 14.3964
868.309 14.9883
868.497 15.6196
868.753 16.5506
869.009 17.5687
869.265 18.6839
869.521 19.9059
869.777 21.2477
870.033 22.7225
870.289 24.3463
870.417 25.2198
870.545 26.1366
870.732 27.5670
870.920 29.1064
871.108 30.7646
871.295 32.5526
871.483 34.4824
871.671 36.5675
871.858 38.8231
872.046 41.2647
872.234 43.9137
872.421 46.7900
872.609 49.9176
872.797 53.3234
872.985 57.0377
873.172 61.0951
873.360 65.5347
873.548 70.3985
873.735 75.7426
873.923 81.6229
874.017 84.7864
874.111 88.1065
874.205 91.6001
874.298 95.2707
874.392 99.1375
874.486 103.205
874.580 107.495
874.674 112.012
874.768 116.783
874.861 121.813
874.955 127.126
875.049 132.742
875.143 138.687
875.237 144.973
875.331 151.638
875.424 158.694
875.518 166.187
875.612 174.130
875.706 182.576
875.800 191.545
875.894 201.095
875.988 211.251
876.081 222.081
876.175 233.615
876.269 245.934
876.363 259.072
876.457 273.110
876.551 288.119
876.653 305.706
876.755 324.655
876.858 345.084
876.960 367.102
877.062 390.890
877.165 416.575
877.267 444.313
877.370 474.239
877.463 503.801
877.557 535.469
877.651 569.443
877.745 605.779
877.839 644.678
877.933 686.163
878.027 730.413
878.120 777.396
878.192 815.202
878.264 854.643
878.407 938.318
878.551 1027.97
878.694 1122.68
878.981 1321.52
879.124 1421.34
879.267 1517.62
879.359 1575.86
879.450 1630.49
879.542 1680.62
879.634 1725.42
879.725 1764.10
879.817 1796.01
879.908 1820.58
880.000 1837.42
880.105 1846.90
880.190 1846.87
880.275 1840.00
880.360 1826.54
880.445 1806.84
880.530 1781.31
880.615 1750.52
880.700 1714.99
880.785 1675.42
880.955 1586.55
881.126 1489.13
881.296 1387.77
881.466 1286.35
881.587 1215.79
881.708 1147.58
881.829 1082.23
881.950 1020.11
882.071 961.461
882.192 906.363
882.313 854.814
882.434 806.736
882.550 763.781
882.666 723.782
882.782 686.540
882.898 651.884
883.013 619.640
883.129 589.640
883.245 561.718
883.361 535.717
883.456 515.755
883.551 496.924
883.646 479.112
883.741 462.289
883.835 446.357
883.930 431.289
884.025 416.998
884.120 403.462
884.215 390.607
884.310 378.413
884.405 366.816
884.499 355.801
884.689 335.330
884.879 316.757
884.995 306.230
885.111 296.289
885.226 286.886
885.342 277.982
885.458 269.544
885.574 261.539
885.690 253.938
885.806 246.716
886.038 233.301
886.270 221.132
886.501 210.053
886.733 199.935
886.965 190.667
887.197 182.160
887.429 174.326
887.661 167.101
887.893 160.416
888.124 154.223
888.356 148.473
888.588 143.123
888.809 138.354
889.031 133.885
889.252 129.689
889.473 125.743
889.694 122.028
889.916 118.524
890.137 115.218
890.358 112.094
890.580 109.137
890.801 106.335
891.022 103.679
891.243 101.157
891.465 98.7596
891.686 96.4792
891.907 94.3075
892.129 92.2385
892.360 90.1712
892.592 88.2023
893.056 84.5311
893.520 81.1802
893.983 78.1121
894.447 75.2930
894.911 72.6964
895.374 70.2972
895.838 68.0757
896.175 66.5603
896.512 65.1234
896.850 63.7588
897.187 62.4615
897.524 61.2271
897.861 60.0515
898.198 58.9316
898.536 57.8639
898.999 56.4724
899.463 55.1609
899.927 53.9239
900.390 52.7566
900.854 51.6533
901.318 50.6095
901.781 49.6202
902.245 48.6819
902.709 47.7904
903.172 46.9429
903.636 46.1358
904.099 45.3669
904.563 44.6332
905.027 43.9327
905.954 42.6225
906.881 41.4212
907.809 40.3163
908.736 39.2968
909.663 38.3535
910.591 37.4783
911.518 36.6642
912.445 35.9052
913.373 35.1960
914.089 34.6790
914.806 34.1871
915.522 33.7184
916.239 33.2719
916.955 32.8474
917.672 32.4409
918.389 32.0504
919.105 31.6767
920.538 30.9749
921.971 30.3283
923.404 29.7306
924.838 29.1766
925.765 28.8393
926.692 28.5172
927.620 28.2090
928.547 27.9145
929.474 27.6324
930.402 27.3618
932.256 26.8533
934.111 26.3835
935.965 25.9485
937.820 25.5444
939.675 25.1680
941.867 24.7552
944.058 24.3733
946.250 24.0189
948.442 23.6893
950.634 23.3817
952.826 23.0963
955.018 22.8259
957.209 22.5723
959.907 22.2809
962.605 22.0098
965.302 21.7568
965.977 21.6969
966.145 21.6830
966.314 21.6715
966.483 21.6666
966.567 21.6696
966.651 21.6789
966.735 21.6976
966.820 21.7299
966.904 21.7812
966.988 21.8582
967.031 21.9089
967.073 21.9689
967.115 22.0397
967.157 22.1221
967.199 22.2177
967.241 22.3272
967.283 22.4522
967.326 22.5930
967.368 22.7515
967.410 22.9274
967.452 23.1223
967.494 23.3357
967.536 23.5686
967.578 23.8199
967.621 24.0903
967.663 24.3779
967.705 24.6830
967.747 25.0028
967.789 25.3374
967.831 25.6833
967.916 26.4035
968.000 27.1445
968.000 32.7379
1000.00 32.2547
1070.31 31.6986
1140.63 31.1889
1210.94 30.7190
1281.25 30.2837
1351.56 29.8731
1421.88 29.4897
1492.19 29.1304
1562.50 28.7927
1632.81 28.4710
1703.13 28.1670
1843.75 27.6055
1984.38 27.0931
2125.00 26.6261
2265.63 26.1938
2406.25 25.7952
2546.88 25.4258
2687.50 25.0819
2828.13 24.7576
2968.75 24.4536
3109.38 24.1677
3250.00 23.8981
3531.25 23.3980
3812.50 22.9469
4093.75 22.5346
4375.00 22.1574
4656.25 21.8079
4937.50 21.4847
5218.75 21.1844
5500.00 20.9042
5781.25 20.6401
6062.50 20.3920
6343.75 20.1583
6625.00 19.9375
7187.50 19.5279
7750.00 19.1576
8312.50 18.8183
8875.00 18.5072
9437.50 18.2204
10000.0 17.9547
10703.1 17.7343
11406.3 17.5305
12812.5 17.1644
14218.8 16.8427
15625.0 16.5569
17031.3 16.2995
18437.5 16.0663
19843.8 15.8533
21250.0 15.6576
22656.3 15.4763
24062.5 15.3079
26875.0 15.0038
29687.5 14.7350
32500.0 14.4948
35312.5 14.2778
38125.0 14.0804
40937.5 13.8996
43750.0 13.7330
46562.5 13.5784
49375.0 13.4346
55000.0 13.1740
60625.0 12.9429
66250.0 12.7359
71875.0 12.5489
77500.0 12.3785
83125.0 12.2218
88750.0 12.0773
94375.0 11.9433
100000 11.8185
106250 11.6499
112500 11.4932
118750 11.3470
125000 11.2100
137500 10.9597
150000 10.7361
159180 10.5860
159183 10.5860
159203 10.5857
160000 10.5732
165000 10.4838
170000 10.3992
175000 10.3175
180000 10.2400
190000 10.0805
200000 9.93425
209255 9.78694
209256 9.78693
209270 9.78671
214940 9.70103
220611 9.61855
225000 9.55679
231952 9.46125
240976 9.34145
250000 9.23131
254635 9.17550
264818 9.05599
275000 8.94644
277317 8.92170
288659 8.80266
300000 8.69405
313193 8.54236
326387 8.40054
339580 8.26762
352773 8.14278
364580 8.03392
376387 7.93069
400000 7.73940
405546 7.69655
406853 7.68649
408159 7.67649
410772 7.65669
413385 7.63713
415998 7.61781
415998 7.61781
417352 7.60778
420304 7.58593
423256 7.56444
429159 7.52247
435063 7.48026
440966 7.43936
446870 7.39973
452773 7.36132
457809 7.32923
457809 7.32923
458965 7.32133
460121 7.31348
462433 7.29796
467056 7.26760
471679 7.23812
476303 7.20949
485549 7.15470
494796 7.10301
496097 7.09505
497398 7.08721
500000 7.07190
508800 7.01919
517600 6.96823
526400 6.91893
535200 6.87120
537225 6.85940
539250 6.84768
543300 6.82450
547350 6.80167
551400 6.77917
559500 6.73516
567600 6.69240
575700 6.65084
583800 6.61044
600000 6.53291
610309 6.48942
620617 6.44688
630926 6.40525
641234 6.36450
641234 6.36449
643176 6.35696
645117 6.34945
648999 6.33453
656763 6.30505
664527 6.27606
672291 6.24752
672291 6.24752
673987 6.24135
675683 6.23520
679075 6.22297
685860 6.19881
692644 6.17502
699428 6.15160
701564 6.14333
703700 6.13510
707971 6.11880
716514 6.08677
716514 6.08677
718053 6.08152
719592 6.07630
722670 6.06592
728826 6.04540
734982 6.02522
741138 6.00535
741138 6.00535
743354 5.99818
745569 5.99106
750000 5.97697
753802 5.96493
753802 5.96493
754204 5.96367
754204 5.96367
757066 5.95420
759929 5.94484
765653 5.92647
771378 5.90854
777102 5.89105
788551 5.85731
800000 5.82518
806250 5.81267
812500 5.80030
825000 5.77592
837500 5.75203
850000 5.72859
862500 5.70561
875000 5.68304
900000 5.63913
925000 5.59674
950000 5.55575
975000 5.51606
1.00000E+06 5.47757
1.03125E+06 5.48235
1.06250E+06 5.48677
1.09375E+06 5.49084
1.12500E+06 5.49459
1.15625E+06 5.49802
1.18750E+06 5.50115
1.21875E+06 5.50400
1.25000E+06 5.50657
1.31250E+06 5.51373
1.37500E+06 5.52004
1.43750E+06 5.52557
1.50000E+06 5.53038
1.56250E+06 5.61345
1.62500E+06 5.69357
1.68750E+06 5.77095
1.75000E+06 5.84576
1.81250E+06 5.92094
1.87500E+06 5.99386
1.93750E+06 6.06466
2.00000E+06 6.13345
2.12500E+06 6.29084
2.25000E+06 6.44208
2.37500E+06 6.58922
2.43750E+06 6.66086
2.50000E+06 6.73128
2.62500E+06 6.83535
2.75000E+06 6.93607
2.87500E+06 7.03371
2.93750E+06 7.08144
3.00000E+06 7.12847
3.06250E+06 7.14389
3.12500E+06 7.15899
3.18750E+06 7.17380
3.25000E+06 7.18833
3.31250E+06 7.20258
3.37500E+06 7.21656
3.50000E+06 7.24377
3.62500E+06 7.27033
3.75000E+06 7.29597
3.87500E+06 7.32097
3.93750E+06 7.33316
4.00000E+06 7.34515
4.06250E+06 7.32343
4.12500E+06 7.30213
4.18750E+06 7.28122
4.25000E+06 7.26069
4.31250E+06 7.24053
4.37500E+06 7.22073
4.43750E+06 7.20127
4.50000E+06 7.18214
4.56250E+06 7.16327
4.62500E+06 7.14473
4.68750E+06 7.12648
4.75000E+06 7.10852
4.81250E+06 7.09083
4.87500E+06 7.07341
4.93750E+06 7.05626
5.00000E+06 7.03938
5.04003E+06 7.01260
5.09551E+06 6.97597
5.10003E+06 6.97302
5.16003E+06 6.93412
5.22002E+06 6.89590
5.28002E+06 6.85834
5.34002E+06 6.82141
5.40002E+06 6.78509
5.46001E+06 6.74938
5.52001E+06 6.71424
5.58001E+06 6.67962
5.64001E+06 6.64555
5.70001E+06 6.61202
5.76001E+06 6.57901
5.82000E+06 6.54651
5.88000E+06 6.51450
5.94000E+06 6.48298
6.00000E+06 6.45193
6.04265E+06 6.42324
6.08530E+06 6.39481
6.12795E+06 6.36663
6.17060E+06 6.33869
6.21325E+06 6.31099
6.25590E+06 6.28353
6.29855E+06 6.25630
6.34120E+06 6.22931
6.42650E+06 6.17599
6.51180E+06 6.12354
6.59710E+06 6.07194
6.68240E+06 6.02116
6.75659E+06 5.97650
6.83078E+06 5.93326
6.90497E+06 5.89140
6.97916E+06 5.85087
7.05335E+06 5.81164
7.09628E+06 5.78952
7.12754E+06 5.77366
7.20173E+06 5.73689
7.27592E+06 5.70130
7.33140E+06 5.67147
7.36643E+06 5.65302
7.45694E+06 5.60664
7.54745E+06 5.56211
7.63796E+06 5.51934
7.72847E+06 5.47828
7.81898E+06 5.43885
7.90949E+06 5.40100
8.00000E+06 5.36467
8.03125E+06 5.35668
8.06250E+06 5.34881
8.12500E+06 5.33340
8.18750E+06 5.31844
8.25000E+06 5.30391
8.31250E+06 5.28982
8.37500E+06 5.27614
8.43750E+06 5.26288
8.50000E+06 5.25003
8.56250E+06 5.23758
8.62500E+06 5.22553
8.68750E+06 5.21387
8.75000E+06 5.20258
8.81250E+06 5.19168
8.87500E+06 5.18115
8.93750E+06 5.17098
9.00000E+06 5.16117
9.06250E+06 5.14727
9.12500E+06 5.13378
9.18750E+06 5.12072
9.25000E+06 5.10805
9.31250E+06 5.09580
9.37500E+06 5.08393
9.43750E+06 5.07245
9.50000E+06 5.06136
9.56250E+06 5.05064
9.62500E+06 5.04030
9.68750E+06 5.03032
9.75000E+06 5.02070
9.81250E+06 5.01143
9.87500E+06 5.00251
9.93750E+06 4.99394
1.00000E+07 4.98570
1.00625E+07 4.98508
1.01250E+07 4.98453
1.01875E+07 4.98406
1.02500E+07 4.98366
1.03125E+07 4.98333
1.03750E+07 4.98308
1.04375E+07 4.98291
1.05000E+07 4.98280
1.05625E+07 4.98277
1.06250E+07 4.98280
1.06875E+07 4.98290
1.07500E+07 4.98307
1.08125E+07 4.98331
1.08750E+07 4.98362
1.09375E+07 4.98399
1.10000E+07 4.98443
1.10625E+07 4.98493
1.11250E+07 4.98549
1.11875E+07 4.98612
1.12500E+07 4.98681
1.13125E+07 4.98756
1.13750E+07 4.98838
1.14375E+07 4.98925
1.15000E+07 4.99018
1.15625E+07 4.99117
1.16250E+07 4.99222
1.16875E+07 4.99333
1.17500E+07 4.99449
1.18125E+07 4.99571
1.18750E+07 4.99699
1.19375E+07 4.99832
1.20000E+07 4.99971
1.20625E+07 5.00709
1.21250E+07 5.01447
1.21875E+07 5.02185
1.22500E+07 5.02922
1.23125E+07 5.03660
1.23750E+07 5.04398
1.24375E+07 5.05135
1.25000E+07 5.05873
1.25625E+07 5.06610
1.26250E+07 5.07347
1.26875E+07 5.08084
1.27500E+07 5.08821
1.28125E+07 5.09558
1.28750E+07 5.10295
1.29375E+07 5.11031
1.30000E+07 5.11768
1.30625E+07 5.12504
1.31250E+07 5.13240
1.31875E+07 5.13976
1.32500E+07 5.14712
1.33125E+07 5.15448
1.33750E+07 5.16184
1.34375E+07 5.16920
1.35000E+07 5.17655
1.35625E+07 5.18390
1.36250E+07 5.19125
1.36875E+07 5.19860
1.37500E+07 5.20595
1.38125E+07 5.21330
1.38750E+07 5.22064
1.39375E+07 5.22799
1.40000E+07 5.23533
1.40641E+07 5.24501
1.41282E+07 5.25468
1.41922E+07 5.26434
1.42563E+07 5.27399
1.43204E+07 5.28363
1.43845E+07 5.29327
1.44485E+07 5.30290
1.45126E+07 5.31252
1.45767E+07 5.32213
1.46408E+07 5.33174
1.47048E+07 5.34134
1.47689E+07 5.35093
1.48330E+07 5.36051
1.48971E+07 5.37008
1.49611E+07 5.37965
1.50252E+07 5.38921
1.50861E+07 5.39806
1.51471E+07 5.40690
1.51599E+07 5.40876
1.52080E+07 5.41573
1.52689E+07 5.42456
1.53298E+07 5.43338
1.53908E+07 5.44218
1.54517E+07 5.45099
1.55126E+07 5.45978
1.55735E+07 5.46857
1.56345E+07 5.47735
1.56954E+07 5.48612
1.57563E+07 5.49489
1.58172E+07 5.50364
1.58782E+07 5.51239
1.59391E+07 5.52114
1.60000E+07 5.52987
1.61250E+07 5.54022
1.62500E+07 5.55054
1.63750E+07 5.56084
1.65000E+07 5.57110
1.66250E+07 5.58133
1.67500E+07 5.59153
1.68750E+07 5.60171
1.70000E+07 5.61185
1.71250E+07 5.62197
1.72500E+07 5.63207
1.73750E+07 5.64213
1.75000E+07 5.65217
1.76250E+07 5.66218
1.77500E+07 5.67216
1.78750E+07 5.68212
1.80000E+07 5.69205
1.82500E+07 5.69400
1.85000E+07 5.69595
1.87500E+07 5.69790
1.90000E+07 5.69986
1.92500E+07 5.70182
1.95000E+07 5.70379
1.97500E+07 5.70575
2.00000E+07 5.70772
2.00000E+07 5.67520
2.00089E+07 5.67512
2.01007E+07 5.67421
2.10000E+07 5.65556
2.20000E+07 5.61400
2.20453E+07 5.61161
2.30000E+07 5.55391
2.40000E+07 5.47900
2.50000E+07 5.39444
2.56125E+07 5.33837
2.60000E+07 5.30050
2.65133E+07 5.24902
2.70000E+07 5.20004
2.80000E+07 5.09740
2.85135E+07 5.04384
2.87263E+07 5.02184
2.90000E+07 4.99382
2.99108E+07 4.90387
3.00000E+07 4.89540
3.09436E+07 4.80910
3.10000E+07 4.80411
3.19368E+07 4.72399
3.20000E+07 4.71875
3.28648E+07 4.64912
3.30000E+07 4.63855
3.40000E+07 4.56289
3.50000E+07 4.49120
3.52004E+07 4.47748
3.52610E+07 4.47343
3.60000E+07 4.42779
3.70000E+07 4.37567
3.76271E+07 4.34780
3.78649E+07 4.33808
3.80000E+07 4.33275
3.90000E+07 4.29728
4.00000E+07 4.26780
4.02401E+07 4.26159
4.10000E+07 4.24514
4.11066E+07 4.24321
4.20000E+07 4.23041
4.30000E+07 4.22282
4.40000E+07 4.22168
4.41569E+07 4.22205
4.42436E+07 4.22231
4.50000E+07 4.22640
4.60000E+07 4.23437
4.70000E+07 4.24406
4.72928E+07 4.24737
4.77998E+07 4.25372
4.80000E+07 4.25647
4.90000E+07 4.27252
5.00000E+07 4.29300
5.09265E+07 4.31420
5.10000E+07 4.31587
5.12674E+07 4.32197
5.20000E+07 4.33865
5.30000E+07 4.36141
5.40000E+07 4.38420
5.44946E+07 4.39551
5.50000E+07 4.40710
5.60000E+07 4.43013
5.64880E+07 4.44138
5.70000E+07 4.45315
5.80000E+07 4.47593
5.90000E+07 4.49827
5.95643E+07 4.51062
6.00000E+07 4.52000
6.03657E+07 4.52769
6.10000E+07 4.54050
6.20000E+07 4.55945
6.30000E+07 4.57712
6.37747E+07 4.59009
6.40000E+07 4.59376
6.50000E+07 4.60960
6.60000E+07 4.62405
6.70000E+07 4.63656
6.75403E+07 4.64261
6.80000E+07 4.64741
6.90000E+07 4.65684
7.00000E+07 4.66510
7.10000E+07 4.67205
7.14679E+07 4.67477
7.20000E+07 4.67747
7.30000E+07 4.68146
7.40000E+07 4.68411
7.50000E+07 4.68550
7.60000E+07 4.68571
7.68064E+07 4.68502
7.70000E+07 4.68475
7.80000E+07 4.68263
7.90000E+07 4.67938
8.00000E+07 4.67500
8.10000E+07 4.66963
8.13330E+07 4.66764
8.20000E+07 4.66336
8.30000E+07 4.65620
8.40000E+07 4.64811
8.50000E+07 4.63910
8.60000E+07 4.62931
8.70000E+07 4.61888
8.80000E+07 4.60777
8.90000E+07 4.59595
9.00000E+07 4.58340
9.10000E+07 4.57021
9.20000E+07 4.55653
9.30000E+07 4.54240
9.40000E+07 4.52788
9.50000E+07 4.51300
9.60000E+07 4.49775
9.70000E+07 4.48209
9.80000E+07 4.46601
9.90000E+07 4.44952
1.00000E+08 4.43260
1.02000E+08 4.39799
1.04000E+08 4.36270
1.06000E+08 4.32676
1.08000E+08 4.29021
1.10000E+08 4.25310
1.12000E+08 4.21573
1.14000E+08 4.17832
1.16000E+08 4.14084
1.18000E+08 4.10324
1.20000E+08 4.06550
1.22000E+08 4.02803
1.24000E+08 3.99113
1.26000E+08 3.95458
1.28000E+08 3.91823
1.30000E+08 3.88190
1.32000E+08 3.84590
1.34000E+08 3.81058
1.36000E+08 3.77588
1.38000E+08 3.74173
1.40000E+08 3.70810
1.42000E+08 3.67507
1.44000E+08 3.64270
1.46000E+08 3.61094
1.48000E+08 3.57972
1.50000E+08 3.54900
